,fast,slow,sig,delay,numSell,exposure,drawdown,winLoss,value,zzz
0,3,3,3,1,0,0.0,0.0,inf,10000.0,3-3-3-1
1,3,3,3,2,0,0.0,0.0,inf,10000.0,3-3-3-2
2,3,3,3,3,0,0.0,0.0,inf,10000.0,3-3-3-3
3,3,3,3,4,0,0.0,0.0,inf,10000.0,3-3-3-4
4,3,3,5,1,0,0.0,0.0,inf,10000.0,3-3-5-1
5,3,3,5,2,0,0.0,0.0,inf,10000.0,3-3-5-2
6,3,3,5,3,0,0.0,0.0,inf,10000.0,3-3-5-3
7,3,3,5,4,0,0.0,0.0,inf,10000.0,3-3-5-4
8,3,3,7,1,0,0.0,0.0,inf,10000.0,3-3-7-1
9,3,3,7,2,0,0.0,0.0,inf,10000.0,3-3-7-2
10,3,3,7,3,0,0.0,0.0,inf,10000.0,3-3-7-3
11,3,3,7,4,0,0.0,0.0,inf,10000.0,3-3-7-4
12,3,3,9,1,0,0.0,0.0,inf,10000.0,3-3-9-1
13,3,3,9,2,0,0.0,0.0,inf,10000.0,3-3-9-2
14,3,3,9,3,0,0.0,0.0,inf,10000.0,3-3-9-3
15,3,3,9,4,0,0.0,0.0,inf,10000.0,3-3-9-4
16,3,3,11,1,0,0.0,0.0,inf,10000.0,3-3-11-1
17,3,3,11,2,0,0.0,0.0,inf,10000.0,3-3-11-2
18,3,3,11,3,0,0.0,0.0,inf,10000.0,3-3-11-3
19,3,3,11,4,0,0.0,0.0,inf,10000.0,3-3-11-4
20,3,4,3,1,50,0.45858895705521474,-0.1304450867969009,4.0,18088.489999999998,3-4-3-1
21,3,4,3,2,14,0.31901840490797545,-0.10427659046972985,3.6666666666666665,12390.195000000002,3-4-3-2
22,3,4,3,3,1,0.2837423312883436,-0.07576349521478336,inf,11416.94,3-4-3-3
23,3,4,3,4,1,0.3266871165644172,-0.07606247865437167,inf,11350.53,3-4-3-4
24,3,4,5,1,39,0.4279141104294479,-0.09641348181845642,3.875,17802.94499999999,3-4-5-1
25,3,4,5,2,12,0.4616564417177914,-0.1379421424962103,2.0,12283.290000000003,3-4-5-2
26,3,4,5,3,4,0.6993865030674846,-0.14989061193861009,3.0,12325.600000000006,3-4-5-3
27,3,4,5,4,2,0.6549079754601227,-0.16020019469251273,1.0,11905.17,3-4-5-4
28,3,4,7,1,28,0.3773006134969325,-0.1378167401216102,3.6666666666666665,14601.158000000001,3-4-7-1
29,3,4,7,2,12,0.36809815950920244,-0.1804957550831711,2.0,11472.512,3-4-7-2
30,3,4,7,3,5,0.45858895705521474,-0.13402519035922988,1.5,11130.659999999998,3-4-7-3
31,3,4,7,4,1,0.36503067484662577,-0.07689700130378099,inf,12954.24,3-4-7-4
32,3,4,9,1,21,0.3512269938650307,-0.10238257559775359,3.2,12126.210000000003,3-4-9-1
33,3,4,9,2,9,0.28680981595092025,-0.1548971880999466,1.25,9367.390000000001,3-4-9-2
34,3,4,9,3,5,0.17024539877300612,-0.10206059945419235,4.0,10379.294999999998,3-4-9-3
35,3,4,9,4,0,0.0,0.0,inf,10000.0,3-4-9-4
36,3,4,11,1,20,0.3266871165644172,-0.11104084682947682,2.3333333333333335,11794.150000000003,3-4-11-1
37,3,4,11,2,9,0.28680981595092025,-0.1024725290103727,1.25,9620.22,3-4-11-2
38,3,4,11,3,2,0.23159509202453987,-0.0730620652090567,inf,12099.029999999999,3-4-11-3
39,3,4,11,4,0,0.0,0.0,inf,10000.0,3-4-11-4
40,3,5,3,1,50,0.44171779141104295,-0.1376088839258887,4.0,17291.45499999999,3-5-3-1
41,3,5,3,2,12,0.3604294478527607,-0.1611275275001497,1.0,10796.229999999994,3-5-3-2
42,3,5,3,3,4,0.1579754601226994,-0.08397306148158236,inf,12896.47,3-5-3-3
43,3,5,3,4,0,0.0,0.0,inf,10000.0,3-5-3-4
44,3,5,5,1,39,0.4171779141104294,-0.1246408857480402,2.5454545454545454,15955.595999999989,3-5-5-1
45,3,5,5,2,18,0.4294478527607362,-0.16285430050793004,3.5,14961.919999999995,3-5-5-2
46,3,5,5,3,5,0.3343558282208589,-0.17389531938111386,4.0,10598.509999999998,3-5-5-3
47,3,5,5,4,1,0.03067484662576687,-0.120175,0.0,8798.25,3-5-5-4
48,3,5,7,1,31,0.4110429447852761,-0.15054690781903526,3.4285714285714284,14882.689999999997,3-5-7-1
49,3,5,7,2,14,0.3665644171779141,-0.12427959338627005,6.0,11406.810000000005,3-5-7-2
50,3,5,7,3,5,0.3343558282208589,-0.12277721478267549,4.0,11071.420000000002,3-5-7-3
51,3,5,7,4,1,0.06441717791411043,-0.054845000000000074,inf,10665.699999999999,3-5-7-4
52,3,5,9,1,23,0.3911042944785276,-0.1387309889277207,2.2857142857142856,12675.706000000004,3-5-9-1
53,3,5,9,2,11,0.2714723926380368,-0.10433125097726782,2.6666666666666665,10826.189999999999,3-5-9-2
54,3,5,9,3,2,0.11042944785276074,-0.07033257800734667,1.0,10427.94,3-5-9-3
55,3,5,9,4,2,0.10122699386503067,-0.0649315094180411,1.0,10493.339999999998,3-5-9-4
56,3,5,11,1,22,0.35276073619631904,-0.1221958056268286,1.75,12491.251999999995,3-5-11-1
57,3,5,11,2,9,0.23159509202453987,-0.10419897896094268,3.5,10142.080000000002,3-5-11-2
58,3,5,11,3,3,0.17024539877300612,-0.11276476969416835,0.5,9520.105,3-5-11-3
59,3,5,11,4,1,0.6809815950920245,-0.107398848842796,inf,14014.720000000003,3-5-11-4
60,3,6,3,1,48,0.4371165644171779,-0.10465165924439704,4.333333333333333,18139.734999999986,3-6-3-1
61,3,6,3,2,14,0.4187116564417178,-0.16028282043547082,2.5,12192.24,3-6-3-2
62,3,6,3,3,5,0.5276073619631901,-0.13658260826820023,4.0,12646.440000000006,3-6-3-3
63,3,6,3,4,3,0.5168711656441718,-0.16025083758358186,2.0,11900.690000000002,3-6-3-4
64,3,6,5,1,38,0.4386503067484663,-0.16049710429907704,3.2222222222222223,15591.549999999976,3-6-5-1
65,3,6,5,2,20,0.40644171779141103,-0.12807472248031684,3.0,12837.600000000006,3-6-5-2
66,3,6,5,3,7,0.6395705521472392,-0.16388006872155378,2.5,11957.510000000006,3-6-5-3
67,3,6,5,4,1,0.03067484662576687,-0.120175,0.0,8798.25,3-6-5-4
68,3,6,7,1,31,0.4325153374233129,-0.15357490412279548,3.4285714285714284,13977.280000000004,3-6-7-1
69,3,6,7,2,18,0.37116564417177916,-0.12026252439275234,5.0,12659.00000000001,3-6-7-2
70,3,6,7,3,7,0.4125766871165644,-0.10298330172839276,2.5,11395.44,3-6-7-3
71,3,6,7,4,0,0.0,0.0,inf,10000.0,3-6-7-4
72,3,6,9,1,23,0.37883435582822084,-0.10386043745092163,2.8333333333333335,12986.980000000003,3-6-9-1
73,3,6,9,2,14,0.3312883435582822,-0.10479674377865933,6.0,12162.500000000002,3-6-9-2
74,3,6,9,3,5,0.24233128834355827,-0.14822781934702253,1.5,10240.925000000001,3-6-9-3
75,3,6,9,4,1,0.18404907975460122,-0.07645633165549291,inf,10513.810000000001,3-6-9-4
76,3,6,11,1,21,0.3496932515337423,-0.12407667714503953,2.0,12419.199999999993,3-6-11-1
77,3,6,11,2,13,0.294478527607362,-0.10314102749847871,5.5,12380.599999999999,3-6-11-2
0,3,6,11,3,5,0.18711656441717792,-0.11847802897949054,0.6666666666666666,9173.100000000002,3-6-11-3
1,3,6,11,4,0,0.0,0.0,inf,10000.0,3-6-11-4
2,5,6,3,1,40,0.4187116564417178,-0.1249474348330693,2.6363636363636362,16553.364999999998,5-6-3-1
3,5,6,3,2,16,0.5,-0.0840969675478787,4.333333333333333,15931.480000000003,5-6-3-2
4,5,6,3,3,4,0.3006134969325153,-0.0850544953752673,inf,12600.370000000003,5-6-3-3
5,5,6,3,4,0,0.0,0.0,inf,10000.0,5-6-3-4
6,5,6,5,1,35,0.44171779141104295,-0.1362571976182984,4.0,14794.990000000003,5-6-5-1
7,5,6,5,2,19,0.4233128834355828,-0.15129311032443413,2.8,11704.330000000005,5-6-5-2
8,5,6,5,3,4,0.44171779141104295,-0.07566809358655822,inf,14298.060000000003,5-6-5-3
9,5,6,5,4,1,0.27300613496932513,-0.0752511716062137,inf,11471.75,5-6-5-4
10,5,6,7,1,26,0.4294478527607362,-0.127748310531202,4.2,13331.835,5-6-7-1
11,5,6,7,2,19,0.40797546012269936,-0.14779558662588183,2.1666666666666665,11244.359999999999,5-6-7-2
12,5,6,7,3,4,0.44785276073619634,-0.07590088280782649,3.0,12558.39,5-6-7-3
13,5,6,7,4,1,0.5782208588957055,-0.10821808758394666,inf,13839.15,5-6-7-4
14,5,6,9,1,20,0.3588957055214724,-0.10499381642858424,3.0,12483.769999999995,5-6-9-1
15,5,6,9,2,15,0.30214723926380366,-0.10114271157450362,2.75,10867.67,5-6-9-2
16,5,6,9,3,6,0.3726993865030675,-0.0755487951324954,2.0,12044.980000000003,5-6-9-3
17,5,6,9,4,1,0.38496932515337423,-0.07689700130378099,inf,12390.08,5-6-9-4
18,5,6,11,1,21,0.3619631901840491,-0.1042218965963969,2.5,12238.640000000001,5-6-11-1
19,5,6,11,2,10,0.2469325153374233,-0.14266443512877075,1.5,9743.070000000003,5-6-11-2
20,5,6,11,3,2,0.09662576687116564,-0.07311323505966823,inf,10758.06,5-6-11-3
21,5,6,11,4,1,0.06441717791411043,-0.046424754542095006,inf,10818.65,5-6-11-4
22,5,8,3,1,38,0.455521472392638,-0.14811926996514604,4.428571428571429,17988.995000000006,5-8-3-1
23,5,8,3,2,21,0.38190184049079756,-0.10516261242763156,2.0,13335.690000000006,5-8-3-2
24,5,8,3,3,3,0.4171779141104294,-0.07548605998225717,inf,14839.31,5-8-3-3
25,5,8,3,4,1,0.27300613496932513,-0.0752511716062137,inf,11471.75,5-8-3-4
26,5,8,5,1,35,0.45858895705521474,-0.148917164183775,3.375,14958.3,5-8-5-1
27,5,8,5,2,26,0.42024539877300615,-0.12410115682973137,3.3333333333333335,14532.44500000001,5-8-5-2
28,5,8,5,3,6,0.3987730061349693,-0.13983457210181666,5.0,13628.774999999998,5-8-5-3
29,5,8,5,4,0,0.0,0.0,inf,10000.0,5-8-5-4
30,5,8,7,1,29,0.4156441717791411,-0.10421744687018271,1.9,12238.019999999999,5-8-7-1
31,5,8,7,2,22,0.3803680981595092,-0.11075763823728331,3.4,13035.675000000008,5-8-7-2
32,5,8,7,3,7,0.23773006134969324,-0.13833136935264834,6.0,12031.597999999998,5-8-7-3
33,5,8,7,4,1,0.05368098159509203,-0.14060301679742754,0.0,9028.119999999999,5-8-7-4
34,5,8,9,1,19,0.3726993865030675,-0.10359314957418152,1.7142857142857142,11968.342,5-8-9-1
35,5,8,9,2,16,0.3266871165644172,-0.11086035975885393,3.0,11612.434000000001,5-8-9-2
36,5,8,9,3,5,0.2361963190184049,-0.07709578428996931,inf,12540.008000000002,5-8-9-3
37,5,8,9,4,2,0.4217791411042945,-0.0753581524603517,inf,12640.680000000002,5-8-9-4
38,5,8,11,1,18,0.3328220858895706,-0.10602999544537706,1.25,10991.539999999999,5-8-11-1
39,5,8,11,2,14,0.29754601226993865,-0.12199784079233512,1.8,10100.730000000005,5-8-11-2
40,5,8,11,3,7,0.21779141104294478,-0.06635209824571178,6.0,12836.090000000006,5-8-11-3
41,5,8,11,4,2,0.3696319018404908,-0.08378926638582652,inf,14024.48,5-8-11-4
42,5,10,3,1,35,0.45245398773006135,-0.10870892251833134,4.0,15710.56500000001,5-10-3-1
43,5,10,3,2,23,0.4815950920245399,-0.09028288437007567,2.2857142857142856,13942.370000000004,5-10-3-2
44,5,10,3,3,9,0.6441717791411042,-0.14032078771680861,8.0,14966.065999999999,5-10-3-3
45,5,10,3,4,1,0.7239263803680982,-0.12621065166961493,inf,15107.200000000003,5-10-3-4
46,5,10,5,1,29,0.40950920245398775,-0.10476119142136639,1.6363636363636365,11832.810000000009,5-10-5-1
47,5,10,5,2,22,0.3619631901840491,-0.1035578201010984,3.4,12677.185,5-10-5-2
48,5,10,5,3,9,0.3726993865030675,-0.14543981250661633,2.0,11123.985999999999,5-10-5-3
49,5,10,5,4,0,0.0,0.0,inf,10000.0,5-10-5-4
50,5,10,7,1,21,0.37116564417177916,-0.10301649781892859,2.5,12043.078999999994,5-10-7-1
51,5,10,7,2,18,0.34202453987730064,-0.11220005150329282,2.6,11787.161000000002,5-10-7-2
52,5,10,7,3,9,0.24846625766871167,-0.06535900443629127,8.0,13173.882,5-10-7-3
53,5,10,7,4,1,0.14877300613496933,-0.07315084449621434,inf,11374.72,5-10-7-4
54,5,10,9,1,17,0.3389570552147239,-0.10203742294579778,1.8333333333333333,11097.914999999999,5-10-9-1
55,5,10,9,2,16,0.3312883435582822,-0.12683430536375317,1.6666666666666667,10451.610000000008,5-10-9-2
56,5,10,9,3,8,0.21779141104294478,-0.06552067479570471,3.0,12042.380000000008,5-10-9-3
57,5,10,9,4,2,0.18558282208588958,-0.08378926638582652,inf,11278.93,5-10-9-4
58,5,10,11,1,15,0.29754601226993865,-0.10638459930484628,1.1428571428571428,10559.039999999999,5-10-11-1
59,5,10,11,2,14,0.2852760736196319,-0.13274475337313943,1.3333333333333333,10045.14000000001,5-10-11-2
60,5,10,11,3,8,0.20705521472392638,-0.12516874027676234,1.6666666666666667,10712.44000000001,5-10-11-3
61,5,10,11,4,5,0.19325153374233128,-0.05402188851627286,inf,13112.420000000002,5-10-11-4
62,7,8,3,1,35,0.44631901840490795,-0.11073823784077379,2.888888888888889,13885.36,7-8-3-1
63,7,8,3,2,19,0.5383435582822086,-0.10775313149138163,3.75,14986.454999999996,7-8-3-2
64,7,8,3,3,5,0.6794478527607362,-0.1375639485388306,1.5,12465.655,7-8-3-3
65,7,8,3,4,1,0.6702453987730062,-0.10831003002496623,inf,14684.640000000001,7-8-3-4
66,7,8,5,1,31,0.4371165644171779,-0.1041863500689596,2.875,14340.74300000001,7-8-5-1
67,7,8,5,2,25,0.4125766871165644,-0.10319344623301682,2.5714285714285716,13080.650000000007,7-8-5-2
68,7,8,5,3,7,0.6319018404907976,-0.12662911260029683,2.5,15943.010000000006,7-8-5-3
69,7,8,5,4,4,0.30828220858895705,-0.10715109037163723,1.0,9676.185000000001,7-8-5-4
70,7,8,7,1,24,0.36809815950920244,-0.10366481956283989,2.0,13014.327000000003,7-8-7-1
71,7,8,7,2,22,0.36503067484662577,-0.1111741109261886,1.75,11142.492000000007,7-8-7-2
72,7,8,7,3,13,0.39723926380368096,-0.10469207516111016,3.3333333333333335,14959.188000000006,7-8-7-3
73,7,8,7,4,3,0.2929447852760736,-0.11856464309352904,2.0,11332.87,7-8-7-4
74,7,8,9,1,19,0.36349693251533743,-0.10263381680080381,1.7142857142857142,12093.140000000003,7-8-9-1
75,7,8,9,2,15,0.34202453987730064,-0.1042213756299269,2.75,10489.29000000001,7-8-9-2
76,7,8,9,3,9,0.3880368098159509,-0.11512205097696546,0.8,10684.290000000003,7-8-9-3
77,7,8,9,4,4,0.5122699386503068,-0.14786899988480073,1.0,11465.380000000001,7-8-9-4
0,7,8,11,1,15,0.3236196319018405,-0.10466380949633601,1.5,11483.770000000006,7-8-11-1
1,7,8,11,2,13,0.28680981595092025,-0.11591671544386659,1.6,10406.73000000001,7-8-11-2
2,7,8,11,3,8,0.23159509202453987,-0.12568647864805058,1.6666666666666667,10634.830000000005,7-8-11-3
3,7,8,11,4,3,0.1549079754601227,-0.12382572816273084,2.0,11227.119999999999,7-8-11-4
4,7,9,3,1,32,0.4401840490797546,-0.10496385724353748,3.0,14915.92500000001,7-9-3-1
5,7,9,3,2,25,0.4432515337423313,-0.1106004151463971,3.1666666666666665,15176.590000000007,7-9-3-2
6,7,9,3,3,5,0.37576687116564417,-0.12550454965604682,inf,16659.039999999997,7-9-3-3
7,7,9,3,4,2,0.22392638036809817,-0.10659954957158789,inf,11947.920000000002,7-9-3-4
8,7,9,5,1,29,0.43098159509202455,-0.10610251125226089,2.625,11900.35,7-9-5-1
9,7,9,5,2,27,0.44631901840490795,-0.10351310598933593,2.375,12330.980000000012,7-9-5-2
10,7,9,5,3,10,0.48466257668711654,-0.14660753170777763,2.3333333333333335,13015.080000000002,7-9-5-3
11,7,9,5,4,3,0.48773006134969327,-0.14884003537722018,2.0,10884.54,7-9-5-4
12,7,9,7,1,22,0.3773006134969325,-0.10481995040923221,1.75,11812.078000000007,7-9-7-1
13,7,9,7,2,21,0.3895705521472393,-0.10774186166608474,1.3333333333333333,11026.742,7-9-7-2
14,7,9,7,3,11,0.4677914110429448,-0.14930431914049846,4.5,15972.902000000006,7-9-7-3
15,7,9,7,4,6,0.5460122699386503,-0.14842794490085853,2.0,12407.49,7-9-7-4
16,7,9,9,1,18,0.3558282208588957,-0.10228785431568486,2.6,12138.720000000005,7-9-9-1
17,7,9,9,2,17,0.3773006134969325,-0.10402678664184054,1.4285714285714286,11211.940000000002,7-9-9-2
18,7,9,9,3,8,0.34355828220858897,-0.11964245507755851,0.6,9934.870000000006,7-9-9-3
19,7,9,9,4,4,0.38190184049079756,-0.11109556881706457,1.0,10548.860000000002,7-9-9-4
20,7,9,11,1,13,0.3128834355828221,-0.10244307242651873,1.6,11405.395000000006,7-9-11-1
21,7,9,11,2,13,0.35429447852760737,-0.11339640773458888,1.6,11024.960000000006,7-9-11-2
22,7,9,11,3,8,0.26533742331288346,-0.1196765284625671,1.0,10643.190000000002,7-9-11-3
23,7,9,11,4,3,0.40797546012269936,-0.10767860483380329,0.5,11763.83,7-9-11-4
24,7,10,3,1,31,0.4371165644171779,-0.10519387985476336,2.4444444444444446,12960.345000000014,7-10-3-1
25,7,10,3,2,25,0.40337423312883436,-0.10367274421855871,2.125,12309.800000000014,7-10-3-2
26,7,10,3,3,13,0.5291411042944786,-0.11332080036943375,3.3333333333333335,15149.454999999996,7-10-3-3
27,7,10,3,4,4,0.5782208588957055,-0.11289076360569573,3.0,13800.510000000002,7-10-3-4
28,7,10,5,1,27,0.4049079754601227,-0.10434514954086084,2.375,11872.120000000004,7-10-5-1
29,7,10,5,2,26,0.42024539877300615,-0.10453996272214756,2.25,11498.965000000011,7-10-5-2
30,7,10,5,3,15,0.46319018404907975,-0.1527260759147924,2.75,13499.812000000004,7-10-5-3
31,7,10,5,4,3,0.6441717791411042,-0.14932287954383455,2.0,11529.210000000001,7-10-5-4
32,7,10,7,1,21,0.37423312883435583,-0.10856108934512729,2.0,11329.684,7-10-7-1
33,7,10,7,2,21,0.39263803680981596,-0.10910223872047468,2.5,11757.976000000004,7-10-7-2
34,7,10,7,3,14,0.45245398773006135,-0.15254023027456712,0.75,10853.541,7-10-7-3
35,7,10,7,4,5,0.4279141104294479,-0.12846874921667842,0.6666666666666666,10778.410000000003,7-10-7-4
36,7,10,9,1,16,0.3266871165644172,-0.10265961906824188,1.2857142857142858,11023.010000000006,7-10-9-1
37,7,10,9,2,15,0.35276073619631904,-0.10882300461487308,1.1428571428571428,10987.945000000002,7-10-9-2
38,7,10,9,3,10,0.254601226993865,-0.1353762237549292,0.6666666666666666,9223.800000000005,7-10-9-3
39,7,10,9,4,3,0.1579754601226994,-0.13562028614357513,0.5,9342.7,7-10-9-4
40,7,10,11,1,12,0.29754601226993865,-0.10217093384871957,2.0,11081.765000000009,7-10-11-1
41,7,10,11,2,12,0.2929447852760736,-0.11715149851669779,1.4,10067.660000000005,7-10-11-2
42,7,10,11,3,9,0.25306748466257667,-0.10604266895040418,1.25,10292.390000000007,7-10-11-3
43,7,10,11,4,4,0.19785276073619631,-0.09137017561265993,1.0,11447.600000000004,7-10-11-4
44,7,12,3,1,26,0.3941717791411043,-0.10312804469457469,3.3333333333333335,13089.900000000005,7-12-3-1
45,7,12,3,2,20,0.4003067484662577,-0.11004352869114176,1.8571428571428572,10925.960000000003,7-12-3-2
46,7,12,3,3,13,0.3113496932515337,-0.15250401043847953,1.6,11210.660000000009,7-12-3-3
47,7,12,3,4,5,0.47392638036809814,-0.1402806586179895,1.5,11132.97,7-12-3-4
48,7,12,5,1,22,0.3911042944785276,-0.11004793570212099,1.75,11506.92,7-12-5-1
49,7,12,5,2,19,0.3834355828220859,-0.1215813904021909,2.8,11398.070000000005,7-12-5-2
50,7,12,5,3,13,0.4125766871165644,-0.12588072456911314,1.6,11658.155000000008,7-12-5-3
51,7,12,5,4,6,0.5797546012269938,-0.14666627375422178,5.0,13610.050000000008,7-12-5-4
52,7,12,7,1,17,0.348159509202454,-0.10215793066343605,1.8333333333333333,11798.390000000001,7-12-7-1
53,7,12,7,2,17,0.3389570552147239,-0.10633965672090269,1.8333333333333333,10766.230000000007,7-12-7-2
54,7,12,7,3,11,0.26993865030674846,-0.1380947537616048,0.8333333333333334,10338.450000000004,7-12-7-3
55,7,12,7,4,4,0.08128834355828221,-0.10512984199273512,3.0,10036.810000000001,7-12-7-4
56,7,12,9,1,12,0.30368098159509205,-0.10249352408097062,2.0,11399.140000000005,7-12-9-1
57,7,12,9,2,11,0.28680981595092025,-0.11565332250089438,1.75,9861.960000000006,7-12-9-2
58,7,12,9,3,10,0.26993865030674846,-0.10670645106876873,1.5,10220.770000000004,7-12-9-3
59,7,12,9,4,4,0.12883435582822086,-0.09307447003742164,1.0,10229.730000000001,7-12-9-4
60,7,12,11,1,12,0.299079754601227,-0.10329097252396896,1.4,10947.925000000003,7-12-11-1
61,7,12,11,2,12,0.294478527607362,-0.11410091833711856,1.4,9689.220000000007,7-12-11-2
62,7,12,11,3,10,0.26533742331288346,-0.10519768293803879,1.0,10026.77,7-12-11-3
63,7,12,11,4,5,0.1901840490797546,-0.09402510741616024,1.5,11209.120000000004,7-12-11-4
64,7,13,3,1,23,0.3911042944785276,-0.10355244224267623,1.875,12325.754999999992,7-13-3-1
65,7,13,3,2,18,0.3911042944785276,-0.10526100307062417,2.0,10676.040000000003,7-13-3-2
66,7,13,3,3,14,0.3450920245398773,-0.10653166625330074,2.5,11737.595000000005,7-13-3-3
67,7,13,3,4,5,0.35429447852760737,-0.12723725355688784,4.0,10517.420000000004,7-13-3-4
68,7,13,5,1,19,0.36809815950920244,-0.10403858240805258,1.7142857142857142,11560.849999999997,7-13-5-1
69,7,13,5,2,18,0.35429447852760737,-0.10418381783446062,2.0,10843.295000000006,7-13-5-2
70,7,13,5,3,11,0.3128834355828221,-0.14436956953865407,1.2,10416.770000000008,7-13-5-3
71,7,13,5,4,3,0.1411042944785276,-0.14418474521161148,0.5,9054.320000000002,7-13-5-4
72,7,13,7,1,15,0.3174846625766871,-0.10415296506631971,1.5,11196.780000000006,7-13-7-1
73,7,13,7,2,15,0.3113496932515337,-0.12807409688683283,1.5,9880.830000000007,7-13-7-2
74,7,13,7,3,12,0.2714723926380368,-0.1384100267345201,0.7142857142857143,10022.79,7-13-7-3
75,7,13,7,4,4,0.15337423312883436,-0.09048173693265717,3.0,11839.28,7-13-7-4
76,7,13,9,1,13,0.31441717791411045,-0.10323251900478826,2.25,11308.220000000003,7-13-9-1
77,7,13,9,2,12,0.2898773006134969,-0.11649867172744073,1.4,9781.040000000005,7-13-9-2
0,7,13,9,3,11,0.3113496932515337,-0.10807804210166003,1.75,11465.300000000003,7-13-9-3
1,7,13,9,4,3,0.16104294478527606,-0.10784773565483925,0.5,9871.870000000003,7-13-9-4
2,7,13,11,1,12,0.30828220858895705,-0.10409590122970472,1.4,11553.745000000008,7-13-11-1
3,7,13,11,2,12,0.299079754601227,-0.11453505461979271,1.4,9970.840000000004,7-13-11-2
4,7,13,11,3,9,0.2561349693251534,-0.10660880271390082,0.8,10231.250000000004,7-13-11-3
5,7,13,11,4,6,0.17791411042944785,-0.09067396715272023,2.0,11117.120000000006,7-13-11-4
6,7,15,3,1,21,0.38190184049079756,-0.1045094909044458,2.5,12548.41,7-15-3-1
7,7,15,3,2,17,0.3512269938650307,-0.10318333632984172,3.25,12021.370000000006,7-15-3-2
8,7,15,3,3,11,0.3282208588957055,-0.12464125717485657,1.75,10004.300000000007,7-15-3-3
9,7,15,3,4,2,0.032208588957055216,-0.11850345390636075,1.0,9015.550000000001,7-15-3-4
10,7,15,5,1,17,0.3450920245398773,-0.10366985260660531,1.4285714285714286,10903.304999999993,7-15-5-1
11,7,15,5,2,16,0.33588957055214724,-0.11357853454379375,2.2,11005.020000000008,7-15-5-2
12,7,15,5,3,9,0.23159509202453987,-0.14647578548243,0.8,9040.170000000006,7-15-5-3
13,7,15,5,4,3,0.1794478527607362,-0.086465684346223,0.5,9898.400000000001,7-15-5-4
14,7,15,7,1,12,0.299079754601227,-0.10364372469635624,2.0,11258.190000000006,7-15-7-1
15,7,15,7,2,12,0.29141104294478526,-0.11480093889442233,2.0,9944.760000000007,7-15-7-2
16,7,15,7,3,8,0.2361963190184049,-0.11218050578441145,1.0,9721.73,7-15-7-3
17,7,15,7,4,3,0.13650306748466257,-0.11091821159043774,0.5,10006.740000000002,7-15-7-4
18,7,15,9,1,12,0.2960122699386503,-0.1133501803494674,1.4,10673.260000000004,7-15-9-1
19,7,15,9,2,12,0.2929447852760736,-0.11486619926928002,1.4,9680.850000000008,7-15-9-2
20,7,15,9,3,10,0.26533742331288346,-0.07959327712388807,0.6666666666666666,10356.509999999998,7-15-9-3
21,7,15,9,4,5,0.1441717791411043,-0.09513550436965093,1.5,10411.950000000003,7-15-9-4
22,7,15,11,1,12,0.294478527607362,-0.11527010119886591,1.4,11172.900000000009,7-15-11-1
23,7,15,11,2,12,0.30214723926380366,-0.11736176436196857,1.0,10114.840000000002,7-15-11-2
24,7,15,11,3,10,0.2607361963190184,-0.0746114973232574,1.0,10919.390000000001,7-15-11-3
25,7,15,11,4,5,0.13957055214723926,-0.09867161617089217,1.5,10207.580000000002,7-15-11-4
26,9,10,3,1,27,0.4263803680981595,-0.11674829063145853,1.4545454545454546,11789.824000000004,9-10-3-1
27,9,10,3,2,10,0.38496932515337423,-0.11107264983388411,4.0,12069.740000000007,9-10-3-2
28,9,10,3,3,4,0.3113496932515337,-0.12848906939977114,3.0,10870.564999999997,9-10-3-3
29,9,10,3,4,2,0.032208588957055216,-0.10462388784038815,1.0,9298.660000000002,9-10-3-4
30,9,10,5,1,23,0.4171779141104294,-0.10241908742513804,1.875,12121.394,9-10-5-1
31,9,10,5,2,21,0.4539877300613497,-0.11042606139844806,2.5,13029.545000000002,9-10-5-2
32,9,10,5,3,10,0.5199386503067485,-0.13240437286673903,2.3333333333333335,10912.789999999992,9-10-5-3
33,9,10,5,4,4,0.33588957055214724,-0.1472763660918528,3.0,9774.140000000001,9-10-5-4
34,9,10,7,1,20,0.3665644171779141,-0.10389469676097192,1.5,11578.720000000005,9-10-7-1
35,9,10,7,2,19,0.37883435582822084,-0.10213084516005588,2.1666666666666665,11801.875000000005,9-10-7-2
36,9,10,7,3,12,0.4447852760736196,-0.12582155436112172,5.0,11454.609999999999,9-10-7-3
37,9,10,7,4,4,0.6058282208588958,-0.12429789172006754,3.0,12855.44,9-10-7-4
38,9,10,9,1,14,0.294478527607362,-0.10238821948195115,1.0,10698.94,9-10-9-1
39,9,10,9,2,13,0.2714723926380368,-0.10302238368542666,1.1666666666666667,10979.755000000003,9-10-9-2
40,9,10,9,3,10,0.3098159509202454,-0.13859028701797055,4.0,11161.01,9-10-9-3
41,9,10,9,4,4,0.4677914110429448,-0.14589484172319628,1.0,11400.98,9-10-9-4
42,9,10,11,1,12,0.28680981595092025,-0.10265278896961967,1.0,10668.22,9-10-11-1
43,9,10,11,2,11,0.2745398773006135,-0.1160162703318232,2.6666666666666665,10883.590000000004,9-10-11-2
44,9,10,11,3,9,0.2745398773006135,-0.10533224692947728,2.0,10727.630000000003,9-10-11-3
45,9,10,11,4,6,0.2776073619631902,-0.11527980869309788,2.0,11084.270000000006,9-10-11-4
46,9,12,3,1,23,0.4263803680981595,-0.10382699329546383,1.5555555555555556,11236.019999999997,9-12-3-1
47,9,12,3,2,20,0.43098159509202455,-0.10422917732795874,2.3333333333333335,12935.710000000005,9-12-3-2
48,9,12,3,3,8,0.41411042944785276,-0.12503217865246866,7.0,12024.949999999995,9-12-3-3
49,9,12,3,4,3,0.30828220858895705,-0.1467675481562296,2.0,10112.11,9-12-3-4
50,9,12,5,1,19,0.37423312883435583,-0.10331388816204656,1.375,11651.359999999999,9-12-5-1
51,9,12,5,2,19,0.39570552147239263,-0.1019490583636744,1.7142857142857142,11466.97,9-12-5-2
52,9,12,5,3,11,0.5184049079754601,-0.15976491721337074,1.75,10758.370000000003,9-12-5-3
53,9,12,5,4,4,0.6073619631901841,-0.12654400810114766,3.0,14362.260000000002,9-12-5-4
54,9,12,7,1,15,0.3174846625766871,-0.10393636410090436,1.5,10521.400000000009,9-12-7-1
55,9,12,7,2,14,0.3159509202453988,-0.10496219796743184,1.8,10059.755000000001,9-12-7-2
56,9,12,7,3,11,0.3496932515337423,-0.14227515743169977,0.8333333333333334,10030.200000000003,9-12-7-3
57,9,12,7,4,6,0.22085889570552147,-0.12403847496195772,1.0,10666.820000000002,9-12-7-4
58,9,12,9,1,12,0.3052147239263804,-0.10300101075071208,2.0,10982.295000000004,9-12-9-1
59,9,12,9,2,11,0.27607361963190186,-0.10938864688352327,0.8333333333333334,9799.370000000003,9-12-9-2
60,9,12,9,3,10,0.26993865030674846,-0.12334027701148334,1.5,10407.45,9-12-9-3
61,9,12,9,4,6,0.34202453987730064,-0.11719509730115997,2.0,11093.450000000004,9-12-9-4
62,9,12,11,1,12,0.2883435582822086,-0.1145054242671232,1.4,10722.87,9-12-11-1
63,9,12,11,2,12,0.299079754601227,-0.10952673793292932,1.4,10208.430000000008,9-12-11-2
64,9,12,11,3,9,0.254601226993865,-0.09021369908754075,2.0,11334.700000000003,9-12-11-3
65,9,12,11,4,6,0.3389570552147239,-0.11280869542051834,2.0,11322.850000000006,9-12-11-4
66,9,14,3,1,16,0.3266871165644172,-0.10473442662161961,1.6666666666666667,10779.659999999998,9-14-3-1
67,9,14,3,2,13,0.34355828220858897,-0.10188756974585544,2.25,10398.925000000007,9-14-3-2
68,9,14,3,3,7,0.3450920245398773,-0.12121400752935828,1.3333333333333333,9741.000000000004,9-14-3-3
69,9,14,3,4,2,0.0352760736196319,-0.10750871679025689,1.0,9086.899999999998,9-14-3-4
70,9,14,5,1,16,0.32515337423312884,-0.10302063873808995,1.2857142857142858,10625.770000000006,9-14-5-1
71,9,14,5,2,14,0.34049079754601225,-0.11563272771022186,1.8,10217.440000000004,9-14-5-2
72,9,14,5,3,11,0.4125766871165644,-0.14449321674801868,1.2,10963.020000000002,9-14-5-3
73,9,14,5,4,5,0.30828220858895705,-0.10573353180694005,1.5,11035.769999999999,9-14-5-4
74,9,14,7,1,13,0.3052147239263804,-0.10348643457688343,2.25,10924.865000000002,9-14-7-1
75,9,14,7,2,12,0.2898773006134969,-0.11483313656251166,2.0,9941.609999999999,9-14-7-2
76,9,14,7,3,10,0.26533742331288346,-0.1047662977449649,1.0,10072.910000000003,9-14-7-3
77,9,14,7,4,6,0.25153374233128833,-0.1094036733566401,2.0,10282.479999999996,9-14-7-4
0,9,14,9,1,12,0.299079754601227,-0.11580548369234317,1.4,10906.000000000004,9-14-9-1
1,9,14,9,2,11,0.2745398773006135,-0.10460824708418254,1.2,10089.910000000007,9-14-9-2
2,9,14,9,3,8,0.24846625766871167,-0.0735407763698466,3.0,11448.970000000001,9-14-9-3
3,9,14,9,4,6,0.2776073619631902,-0.08364157727284466,1.0,10843.730000000005,9-14-9-4
4,9,14,11,1,12,0.3006134969325153,-0.11447394491777285,1.4,11441.280000000002,9-14-11-1
5,9,14,11,2,12,0.3067484662576687,-0.10868817845494808,3.0,11718.540000000006,9-14-11-2
6,9,14,11,3,11,0.2852760736196319,-0.09921725156808853,1.75,12077.015000000009,9-14-11-3
7,9,14,11,4,7,0.22392638036809817,-0.09275765042369254,1.3333333333333333,11152.83,9-14-11-4
8,9,15,3,1,16,0.34049079754601225,-0.10182040262610532,1.0,10765.410000000002,9-15-3-1
9,9,15,3,2,13,0.3220858895705521,-0.10410211134774969,1.1666666666666667,10152.615000000002,9-15-3-2
10,9,15,3,3,9,0.2852760736196319,-0.12455188769211888,2.0,10786.510000000007,9-15-3-3
11,9,15,3,4,2,0.0352760736196319,-0.10750871679025689,1.0,9086.899999999998,9-15-3-4
12,9,15,5,1,15,0.3205521472392638,-0.10424665900733321,1.5,10486.450000000008,9-15-5-1
13,9,15,5,2,14,0.3174846625766871,-0.11683562069746892,1.8,10055.480000000003,9-15-5-2
14,9,15,5,3,12,0.3512269938650307,-0.1575584012060978,1.0,9901.729999999996,9-15-5-3
15,9,15,5,4,5,0.29754601226993865,-0.08460029983535415,1.5,10739.840000000002,9-15-5-4
16,9,15,7,1,13,0.30214723926380366,-0.10204815428637364,1.6,10738.660000000002,9-15-7-1
17,9,15,7,2,13,0.3067484662576687,-0.11659508658992862,2.25,10122.080000000007,9-15-7-2
18,9,15,7,3,11,0.2883435582822086,-0.10750101932810824,1.2,10835.249999999998,9-15-7-3
19,9,15,7,4,7,0.24539877300613497,-0.10900352893145915,1.3333333333333333,9767.850000000002,9-15-7-4
20,9,15,9,1,12,0.3067484662576687,-0.11487485261943024,1.4,11362.055000000004,9-15-9-1
21,9,15,9,2,12,0.3098159509202454,-0.11002735914566086,1.4,11207.955000000005,9-15-9-2
22,9,15,9,3,9,0.254601226993865,-0.07532463252919804,3.5,11504.945000000005,9-15-9-3
23,9,15,9,4,7,0.2668711656441718,-0.0838360523404362,2.5,10464.789999999999,9-15-9-4
24,9,15,11,1,11,0.2898773006134969,-0.11456933387171603,1.75,11753.490000000007,9-15-11-1
25,9,15,11,2,11,0.3006134969325153,-0.10858477633806575,4.5,11731.060000000007,9-15-11-2
26,9,15,11,3,10,0.27300613496932513,-0.10008809613002592,2.3333333333333335,12227.490000000007,9-15-11-3
27,9,15,11,4,8,0.25153374233128833,-0.07737786448335159,3.0,13000.769999999997,9-15-11-4
28,9,17,3,1,15,0.3174846625766871,-0.10291470402601056,1.1428571428571428,10283.364999999998,9-17-3-1
29,9,17,3,2,12,0.2852760736196319,-0.11723767713601227,1.4,10162.660000000007,9-17-3-2
30,9,17,3,3,6,0.23773006134969324,-0.11306820788037224,1.0,10054.720000000003,9-17-3-3
31,9,17,3,4,3,0.19785276073619631,-0.08460029983535415,2.0,12005.800000000001,9-17-3-4
32,9,17,5,1,13,0.3067484662576687,-0.10279651088572812,1.6,10296.545000000004,9-17-5-1
33,9,17,5,2,13,0.3266871165644172,-0.10921205172088183,1.6,10519.110000000004,9-17-5-2
34,9,17,5,3,10,0.2852760736196319,-0.11749215291198908,1.0,10301.620000000003,9-17-5-3
35,9,17,5,4,6,0.20705521472392638,-0.0753192353506359,2.0,12203.160000000005,9-17-5-4
36,9,17,7,1,13,0.3159509202453988,-0.11621146664714077,1.1666666666666667,10862.909999999998,9-17-7-1
37,9,17,7,2,12,0.3113496932515337,-0.1084830693553032,1.4,10674.890000000003,9-17-7-2
38,9,17,7,3,11,0.3006134969325153,-0.09003400684988608,2.6666666666666665,12003.780000000004,9-17-7-3
39,9,17,7,4,7,0.2331288343558282,-0.0714923685412344,2.5,11019.510000000004,9-17-7-4
40,9,17,9,1,13,0.30214723926380366,-0.11421149481737841,1.1666666666666667,11470.970000000005,9-17-9-1
41,9,17,9,2,12,0.3006134969325153,-0.10997881948607274,3.0,11914.985000000006,9-17-9-2
42,9,17,9,3,10,0.2668711656441718,-0.07910539629637944,2.3333333333333335,12268.250000000005,9-17-9-3
43,9,17,9,4,9,0.28680981595092025,-0.07135194319715109,3.5,11755.31,9-17-9-4
44,9,17,11,1,11,0.28680981595092025,-0.10863217209069463,2.6666666666666665,11288.300000000007,9-17-11-1
45,9,17,11,2,11,0.2929447852760736,-0.12406710947109456,4.5,11127.085000000008,9-17-11-2
46,9,17,11,3,10,0.26380368098159507,-0.12720144633291527,2.3333333333333335,11460.840000000006,9-17-11-3
47,9,17,11,4,7,0.2085889570552147,-0.07296611454440333,2.5,11127.54,9-17-11-4
48,9,19,3,1,13,0.3006134969325153,-0.10326739429102151,1.1666666666666667,10244.215000000002,9-19-3-1
49,9,19,3,2,12,0.27607361963190186,-0.11479899739022374,1.4,9944.950000000006,9-19-3-2
50,9,19,3,3,6,0.19938650306748465,-0.10941077113867347,5.0,10355.54,9-19-3-3
51,9,19,3,4,3,0.08742331288343558,-0.030229233113893833,inf,12002.900000000001,9-19-3-4
52,9,19,5,1,13,0.29141104294478526,-0.10437602738202952,1.6,10471.940000000006,9-19-5-1
53,9,19,5,2,13,0.3220858895705521,-0.11516433082364541,1.1666666666666667,10264.430000000008,9-19-5-2
54,9,19,5,3,10,0.2852760736196319,-0.11086172978604912,2.3333333333333335,10906.090000000004,9-19-5-3
55,9,19,5,4,5,0.3389570552147239,-0.12565093112073195,4.0,12308.01,9-19-5-4
56,9,19,7,1,13,0.30214723926380366,-0.11570328342914382,1.1666666666666667,11270.14500000001,9-19-7-1
57,9,19,7,2,12,0.30828220858895705,-0.11036418619259579,1.0,10820.160000000007,9-19-7-2
58,9,19,7,3,10,0.26533742331288346,-0.09047947237026085,1.5,10517.850000000002,9-19-7-3
59,9,19,7,4,7,0.2469325153374233,-0.07446040409412333,2.5,10791.250000000002,9-19-7-4
60,9,19,9,1,12,0.2929447852760736,-0.11669590145191742,1.4,11511.590000000006,9-19-9-1
61,9,19,9,2,11,0.2960122699386503,-0.10804871569898002,2.6666666666666665,11080.800000000007,9-19-9-2
62,9,19,9,3,9,0.25153374233128833,-0.07361801082529262,1.25,11078.630000000005,9-19-9-3
63,9,19,9,4,7,0.1901840490797546,-0.07154698741538013,2.5,11010.449999999997,9-19-9-4
64,9,19,11,1,11,0.28680981595092025,-0.11019748278836482,2.6666666666666665,10838.559000000007,9-19-11-1
65,9,19,11,2,11,0.27300613496932513,-0.07639347982229133,4.5,11795.607000000009,9-19-11-2
66,9,19,11,3,9,0.2147239263803681,-0.07165798886031469,3.5,10992.080000000004,9-19-11-3
67,9,19,11,4,6,0.15644171779141106,-0.06810423923861644,5.0,11505.528,9-19-11-4
68,11,12,3,1,21,0.37576687116564417,-0.11037669971107665,1.3333333333333333,10841.509999999995,11-12-3-1
69,11,12,3,2,15,0.3558282208588957,-0.10677371160073051,1.5,9649.470000000005,11-12-3-2
70,11,12,3,3,5,0.3374233128834356,-0.10328976246909347,1.5,11654.395,11-12-3-3
71,11,12,3,4,3,0.6825153374233128,-0.1084089678806008,2.0,13575.520000000002,11-12-3-4
72,11,12,5,1,18,0.3512269938650307,-0.10844862830640907,1.5714285714285714,10724.729999999992,11-12-5-1
73,11,12,5,2,16,0.3374233128834356,-0.1357717645214648,1.6666666666666667,10695.679999999997,11-12-5-2
74,11,12,5,3,8,0.37883435582822084,-0.1404075800638728,1.0,10515.970000000001,11-12-5-3
75,11,12,5,4,4,0.49693251533742333,-0.146233905424877,1.0,11263.83,11-12-5-4
76,11,12,7,1,16,0.3343558282208589,-0.10485068389832243,1.6666666666666667,10978.335,11-12-7-1
77,11,12,7,2,15,0.34662576687116564,-0.16668854758283796,1.5,10219.190000000006,11-12-7-2
0,11,12,7,3,9,0.40797546012269936,-0.10618977954900861,2.0,11339.520000000004,11-12-7-3
1,11,12,7,4,4,0.7147239263803681,-0.11651095672580174,3.0,14562.170000000002,11-12-7-4
2,11,12,9,1,13,0.30828220858895705,-0.11976860702280528,1.6,11147.400000000003,11-12-9-1
3,11,12,9,2,12,0.2791411042944785,-0.12489809255401668,1.4,10712.560000000003,11-12-9-2
4,11,12,9,3,9,0.26226993865030673,-0.08847881382973871,2.0,11997.770000000006,11-12-9-3
5,11,12,9,4,6,0.37883435582822084,-0.11439705871363559,5.0,11851.050000000001,11-12-9-4
6,11,12,11,1,13,0.3006134969325153,-0.11773668256168646,1.1666666666666667,11112.230000000003,11-12-11-1
7,11,12,11,2,12,0.2898773006134969,-0.12303413506984534,2.0,10436.990000000002,11-12-11-2
8,11,12,11,3,10,0.2822085889570552,-0.12773312909592854,2.3333333333333335,11149.760000000007,11-12-11-3
9,11,12,11,4,5,0.3450920245398773,-0.11246494470005008,4.0,11002.314999999997,11-12-11-4
10,11,14,3,1,18,0.3450920245398773,-0.10641482884498538,1.0,10643.349999999991,11-14-3-1
11,11,14,3,2,16,0.32975460122699385,-0.13455652662535955,1.6666666666666667,10411.510000000002,11-14-3-2
12,11,14,3,3,10,0.2960122699386503,-0.13630460907398415,4.0,11502.855000000003,11-14-3-3
13,11,14,3,4,2,0.5168711656441718,-0.10763552744492004,inf,14183.690000000002,11-14-3-4
14,11,14,5,1,17,0.32975460122699385,-0.10986590183670508,1.4285714285714286,10558.289999999995,11-14-5-1
15,11,14,5,2,16,0.3450920245398773,-0.16938486738269054,1.2857142857142858,10578.000000000002,11-14-5-2
16,11,14,5,3,11,0.3282208588957055,-0.15190915324215137,1.75,10952.665000000005,11-14-5-3
17,11,14,5,4,4,0.3911042944785276,-0.1480643413949208,1.0,11261.09,11-14-5-4
18,11,14,7,1,14,0.31441717791411045,-0.1280741432468182,1.3333333333333333,10401.500000000002,11-14-7-1
19,11,14,7,2,13,0.32515337423312884,-0.11906145377352308,1.1666666666666667,10627.81,11-14-7-2
20,11,14,7,3,10,0.35736196319018404,-0.09364090664084249,2.3333333333333335,12401.145000000008,11-14-7-3
21,11,14,7,4,7,0.2223926380368098,-0.10427370983375968,2.5,12290.35,11-14-7-4
22,11,14,9,1,13,0.30828220858895705,-0.1291434771955615,0.8571428571428571,10449.390000000001,11-14-9-1
23,11,14,9,2,13,0.31901840490797545,-0.14558376978779664,1.1666666666666667,10582.620000000012,11-14-9-2
24,11,14,9,3,10,0.28680981595092025,-0.07775307347801964,4.0,12325.595000000008,11-14-9-3
25,11,14,9,4,7,0.2392638036809816,-0.09263027767564677,1.3333333333333333,12228.344999999998,11-14-9-4
26,11,14,11,1,11,0.2898773006134969,-0.12390142811379035,1.75,11076.12,11-14-11-1
27,11,14,11,2,11,0.30214723926380366,-0.1509866676839152,2.6666666666666665,11128.23000000001,11-14-11-2
28,11,14,11,3,9,0.2837423312883436,-0.13907182012550395,3.5,11957.255000000003,11-14-11-3
29,11,14,11,4,7,0.2116564417177914,-0.09060467347502685,2.5,11222.583999999999,11-14-11-4
30,11,16,3,1,14,0.3098159509202454,-0.10316776952097116,1.3333333333333333,10962.504999999997,11-16-3-1
31,11,16,3,2,12,0.34355828220858897,-0.11523009879009166,1.4,10967.590000000006,11-16-3-2
32,11,16,3,3,7,0.40337423312883436,-0.1337338677393684,6.0,10689.880000000001,11-16-3-3
33,11,16,3,4,3,0.24079754601226994,-0.08460029983535415,inf,11701.060000000003,11-16-3-4
34,11,16,5,1,13,0.3343558282208589,-0.11350093505527475,1.6,11369.745000000006,11-16-5-1
35,11,16,5,2,13,0.34662576687116564,-0.11672829277018659,1.6,11233.295000000006,11-16-5-2
36,11,16,5,3,9,0.3174846625766871,-0.08024205219967144,3.5,11603.790000000003,11-16-5-3
37,11,16,5,4,7,0.30828220858895705,-0.08859578377664006,2.5,11447.720000000005,11-16-5-4
38,11,16,7,1,13,0.34049079754601225,-0.1078622603087861,0.8571428571428571,11022.79,11-16-7-1
39,11,16,7,2,13,0.3450920245398773,-0.12421500304185037,1.1666666666666667,10753.510000000004,11-16-7-2
40,11,16,7,3,11,0.3174846625766871,-0.07717108900611787,4.5,12426.385000000011,11-16-7-3
41,11,16,7,4,7,0.3159509202453988,-0.08782864739643054,2.5,11273.17,11-16-7-4
42,11,16,9,1,12,0.3006134969325153,-0.1269010970740769,1.4,11133.050000000007,11-16-9-1
43,11,16,9,2,12,0.3128834355828221,-0.12170369174221618,3.0,11421.980000000005,11-16-9-2
44,11,16,9,3,10,0.30214723926380366,-0.1404776388085241,2.3333333333333335,12165.860000000004,11-16-9-3
45,11,16,9,4,8,0.2392638036809816,-0.0895371127026262,1.6666666666666667,10762.6,11-16-9-4
46,11,16,11,1,11,0.2929447852760736,-0.12611054808965402,2.6666666666666665,10860.685000000005,11-16-11-1
47,11,16,11,2,11,0.29141104294478526,-0.12342084853412733,4.5,11794.035000000007,11-16-11-2
48,11,16,11,3,9,0.2837423312883436,-0.1367354736610917,3.5,11477.24,11-16-11-3
49,11,16,11,4,8,0.2254601226993865,-0.07202864753578488,3.0,11888.125000000004,11-16-11-4
50,11,19,3,1,13,0.2960122699386503,-0.11517549009387612,1.6,10482.485000000008,11-19-3-1
51,11,19,3,2,10,0.32515337423312884,-0.14000690903234872,1.5,10119.715000000006,11-19-3-2
52,11,19,3,3,4,0.1579754601226994,-0.06844892836087713,3.0,10472.340000000002,11-19-3-3
53,11,19,3,4,2,0.10122699386503067,-0.07413151844151054,1.0,10621.090000000002,11-19-3-4
54,11,19,5,1,13,0.3098159509202454,-0.11320741083879728,1.1666666666666667,11045.720000000005,11-19-5-1
55,11,19,5,2,13,0.3220858895705521,-0.15194663899234262,0.8571428571428571,10222.855000000001,11-19-5-2
56,11,19,5,3,9,0.26226993865030673,-0.07725333055786829,3.5,11348.160000000002,11-19-5-3
57,11,19,5,4,5,0.2392638036809816,-0.0838360523404362,1.5,10342.199999999999,11-19-5-4
58,11,19,7,1,12,0.2960122699386503,-0.12514293696919823,1.4,11303.945000000007,11-19-7-1
59,11,19,7,2,11,0.29754601226993865,-0.15239067677255347,2.6666666666666665,11007.470000000007,11-19-7-2
60,11,19,7,3,8,0.2745398773006135,-0.13848185774129038,3.0,11663.000000000005,11-19-7-3
61,11,19,7,4,7,0.20245398773006135,-0.07244805819957857,2.5,10862.955,11-19-7-4
62,11,19,9,1,11,0.2883435582822086,-0.12591588297470308,2.6666666666666665,10940.570000000007,11-19-9-1
63,11,19,9,2,11,0.2822085889570552,-0.1212090549075611,10.0,11116.455000000007,11-19-9-2
64,11,19,9,3,8,0.24233128834355827,-0.138917037715752,7.0,11972.730000000001,11-19-9-3
65,11,19,9,4,7,0.17638036809815952,-0.06764578385721833,6.0,11238.015,11-19-9-4
66,11,19,11,1,12,0.2929447852760736,-0.09158783497828285,2.0,10571.315000000002,11-19-11-1
67,11,19,11,2,12,0.2883435582822086,-0.1167515334264501,1.4,11107.375000000005,11-19-11-2
68,11,19,11,3,11,0.25306748466257667,-0.10605278298198798,2.6666666666666665,11513.619999999995,11-19-11-3
69,11,19,11,4,9,0.19938650306748465,-0.07007030997074107,3.5,11446.565,11-19-11-4
70,11,21,3,1,12,0.27607361963190186,-0.11182804010051454,1.4,10801.449999999999,11-21-3-1
71,11,21,3,2,10,0.27607361963190186,-0.11659021943749809,1.5,10061.260000000006,11-21-3-2
72,11,21,3,3,4,0.24233128834355827,-0.07959327712388807,3.0,11061.820000000003,11-21-3-3
73,11,21,3,4,3,0.13803680981595093,-0.06869666171789814,2.0,10909.010000000002,11-21-3-4
74,11,21,5,1,12,0.2822085889570552,-0.11369685031528859,2.0,11347.645000000004,11-21-5-1
75,11,21,5,2,12,0.2837423312883436,-0.11647921720781976,3.0,10907.550000000007,11-21-5-2
76,11,21,5,3,7,0.19631901840490798,-0.05539451983039925,2.5,11376.460000000001,11-21-5-3
77,11,21,5,4,4,0.20245398773006135,-0.0838360523404362,3.0,11320.85,11-21-5-4
0,11,21,7,1,12,0.2898773006134969,-0.1156179642952974,2.0,10926.005000000003,11-21-7-1
1,11,21,7,2,11,0.2791411042944785,-0.11735679420445425,10.0,11165.185000000009,11-21-7-2
2,11,21,7,3,8,0.24386503067484663,-0.138549199439811,7.0,11656.420000000006,11-21-7-3
3,11,21,7,4,7,0.1794478527607362,-0.07103881204003397,6.0,11453.194999999998,11-21-7-4
4,11,21,9,1,11,0.2852760736196319,-0.12589364848337498,2.6666666666666665,10529.10400000001,11-21-9-1
5,11,21,9,2,11,0.2684049079754601,-0.11602063771525978,1.75,10832.002000000004,11-21-9-2
6,11,21,9,3,8,0.23773006134969324,-0.1398908485299683,3.0,10478.77,11-21-9-3
7,11,21,9,4,8,0.18251533742331288,-0.052378192673987065,3.0,11568.758000000002,11-21-9-4
8,11,21,11,1,12,0.30214723926380366,-0.09133569533714903,2.0,10962.685000000005,11-21-11-1
9,11,21,11,2,12,0.2960122699386503,-0.11508902189381642,1.4,11289.035000000003,11-21-11-2
10,11,21,11,3,11,0.2607361963190184,-0.10687471894238788,1.75,11221.359999999997,11-21-11-3
11,11,21,11,4,8,0.18558282208588958,-0.06989940803090487,1.6666666666666667,11306.339999999998,11-21-11-4
12,11,23,3,1,12,0.2776073619631902,-0.1147716118248583,2.0,11227.75,11-23-3-1
13,11,23,3,2,10,0.25306748466257667,-0.12113252702797912,4.0,9724.194000000009,11-23-3-2
14,11,23,3,3,4,0.14877300613496933,-0.05819021897326095,1.0,11039.400000000001,11-23-3-3
15,11,23,3,4,2,0.09969325153374232,-0.05618871374728471,1.0,10338.070000000002,11-23-3-4
16,11,23,5,1,13,0.2837423312883436,-0.11317035443425358,1.6,11764.620000000003,11-23-5-1
17,11,23,5,2,12,0.26993865030674846,-0.1162348947176979,3.0,10933.500000000004,11-23-5-2
18,11,23,5,3,8,0.18558282208588958,-0.049485223903624816,7.0,12144.81,11-23-5-3
19,11,23,5,4,4,0.11503067484662577,-0.04540473504995371,inf,11402.939999999999,11-23-5-4
20,11,23,7,1,13,0.30214723926380366,-0.11564976319252028,2.25,11276.043000000005,11-23-7-1
21,11,23,7,2,13,0.2929447852760736,-0.11530153671883421,2.25,11424.658000000007,11-23-7-2
22,11,23,7,3,7,0.1794478527607362,-0.06782217931970574,6.0,12051.856000000002,11-23-7-3
23,11,23,7,4,6,0.1549079754601227,-0.045364593755273984,5.0,11552.971999999998,11-23-7-4
24,11,23,9,1,11,0.3174846625766871,-0.1254529230387366,4.5,12049.995000000003,11-23-9-1
25,11,23,9,2,11,0.30214723926380366,-0.08483205022112839,2.6666666666666665,13199.115000000005,11-23-9-2
26,11,23,9,3,9,0.2929447852760736,-0.1375528645932691,3.5,11754.430000000002,11-23-9-3
27,11,23,9,4,6,0.19631901840490798,-0.04202363906535449,5.0,12599.390000000003,11-23-9-4
28,11,23,11,1,11,0.31901840490797545,-0.12666580346648776,2.6666666666666665,12208.330000000005,11-23-11-1
29,11,23,11,2,11,0.3067484662576687,-0.0846058875069696,4.5,12871.320000000003,11-23-11-2
30,11,23,11,3,9,0.29141104294478526,-0.1382331985665088,2.0,11333.190000000002,11-23-11-3
31,11,23,11,4,7,0.2147239263803681,-0.036585251804167926,2.5,12361.960000000005,11-23-11-4
32,13,14,3,1,18,0.34355828220858897,-0.13350342945698496,1.5714285714285714,10752.069999999996,13-14-3-1
33,13,14,3,2,11,0.299079754601227,-0.23394184190729297,0.375,8716.7,13-14-3-2
34,13,14,3,3,4,0.2684049079754601,-0.14517915623193994,1.0,9939.720000000001,13-14-3-3
35,13,14,3,4,3,0.21932515337423314,-0.1148122722712151,2.0,10057.680000000002,13-14-3-4
36,13,14,5,1,15,0.3343558282208589,-0.11652091115795117,1.1428571428571428,11180.715000000004,13-14-5-1
37,13,14,5,2,15,0.33588957055214724,-0.11016013892723449,2.0,11892.950000000004,13-14-5-2
38,13,14,5,3,9,0.3113496932515337,-0.1381942384758005,1.25,12726.82,13-14-5-3
39,13,14,5,4,5,0.6319018404907976,-0.12694770076300174,1.5,12426.550000000003,13-14-5-4
40,13,14,7,1,13,0.31901840490797545,-0.11478757708856734,1.1666666666666667,11371.815000000002,13-14-7-1
41,13,14,7,2,13,0.3328220858895706,-0.10962824075281664,2.25,11605.800000000003,13-14-7-2
42,13,14,7,3,11,0.30828220858895705,-0.11066353715842794,1.75,11375.444000000003,13-14-7-3
43,13,14,7,4,6,0.45245398773006135,-0.09376502052034152,2.0,12500.270000000004,13-14-7-4
44,13,14,9,1,13,0.30368098159509205,-0.10759449787564379,2.25,11133.245000000008,13-14-9-1
45,13,14,9,2,12,0.3236196319018405,-0.11742442781661193,2.0,12081.780000000004,13-14-9-2
46,13,14,9,3,10,0.31901840490797545,-0.072235216457253,2.3333333333333335,11952.055999999999,13-14-9-3
47,13,14,9,4,6,0.4723926380368098,-0.08740772603652083,2.0,13153.740000000007,13-14-9-4
48,13,14,11,1,12,0.2929447852760736,-0.10814199422808647,3.0,10712.655000000006,13-14-11-1
49,13,14,11,2,11,0.3006134969325153,-0.1179774273516661,4.5,11805.290000000006,13-14-11-2
50,13,14,11,3,10,0.3098159509202454,-0.1376227284626471,4.0,11391.526000000002,13-14-11-3
51,13,14,11,4,7,0.3496932515337423,-0.08863933279250155,6.0,14373.985000000002,13-14-11-4
52,13,17,3,1,15,0.3236196319018405,-0.1148729081125501,1.5,11718.410000000003,13-17-3-1
53,13,17,3,2,13,0.3328220858895706,-0.10888787218025589,2.25,10985.060000000001,13-17-3-2
54,13,17,3,3,7,0.3450920245398773,-0.09311788424963552,6.0,12821.980000000001,13-17-3-3
55,13,17,3,4,3,0.3604294478527607,-0.12565093112073195,2.0,11110.430000000002,13-17-3-4
56,13,17,5,1,13,0.34202453987730064,-0.11006610605853452,1.6,11553.945000000003,13-17-5-1
57,13,17,5,2,12,0.35276073619631904,-0.09515845792915366,2.0,11134.790000000003,13-17-5-2
58,13,17,5,3,10,0.37576687116564417,-0.12110358792634306,1.5,12500.280000000006,13-17-5-3
59,13,17,5,4,5,0.4432515337423313,-0.1377979371505386,4.0,11019.27,13-17-5-4
60,13,17,7,1,12,0.3328220858895706,-0.12577092527525413,2.0,11661.769999999999,13-17-7-1
61,13,17,7,2,12,0.3374233128834356,-0.12124432455740647,3.0,11318.613000000003,13-17-7-2
62,13,17,7,3,11,0.3236196319018405,-0.11543930925677266,1.75,12048.840000000004,13-17-7-3
63,13,17,7,4,6,0.3343558282208589,-0.137045179848455,2.0,10374.019999999999,13-17-7-4
64,13,17,9,1,12,0.31901840490797545,-0.12228792337485134,2.0,10294.864000000003,13-17-9-1
65,13,17,9,2,12,0.3174846625766871,-0.11724928172763263,2.0,11838.569000000007,13-17-9-2
66,13,17,9,3,11,0.3374233128834356,-0.13846948136264725,2.6666666666666665,11664.210000000003,13-17-9-3
67,13,17,9,4,10,0.3604294478527607,-0.13916783644063563,4.0,12672.745000000004,13-17-9-4
68,13,17,11,1,12,0.299079754601227,-0.11897783350792002,2.0,10244.050000000001,13-17-11-1
69,13,17,11,2,12,0.3006134969325153,-0.11121339601115035,1.4,11334.740000000002,13-17-11-2
70,13,17,11,3,10,0.2929447852760736,-0.14311961479979726,2.3333333333333335,10549.500000000002,13-17-11-3
71,13,17,11,4,9,0.26533742331288346,-0.15153064024942123,2.0,10897.855000000003,13-17-11-4
72,13,20,3,1,12,0.30214723926380366,-0.11413509302421905,1.0,11120.900000000005,13-20-3-1
73,13,20,3,2,12,0.34355828220858897,-0.1527497091266941,1.4,10276.292000000005,13-20-3-2
74,13,20,3,3,7,0.36349693251533743,-0.1405826609493983,2.5,12502.580000000002,13-20-3-3
75,13,20,3,4,5,0.34355828220858897,-0.13885328717926,4.0,11274.460000000001,13-20-3-4
76,13,20,5,1,12,0.30828220858895705,-0.15317253319520066,2.0,11173.935000000005,13-20-5-1
77,13,20,5,2,10,0.31901840490797545,-0.13843965098269823,2.3333333333333335,11313.578000000003,13-20-5-2
0,13,20,5,3,9,0.29141104294478526,-0.13931417828094977,3.5,11582.120000000004,13-20-5-3
1,13,20,5,4,5,0.19478527607361965,-0.08348263107324809,4.0,11565.340000000002,13-20-5-4
2,13,20,7,1,12,0.3067484662576687,-0.1187032672828928,3.0,10630.507000000001,13-20-7-1
3,13,20,7,2,12,0.3098159509202454,-0.11228543513896899,2.0,10857.770000000002,13-20-7-2
4,13,20,7,3,10,0.3006134969325153,-0.13669086674344819,2.3333333333333335,10763.980000000005,13-20-7-3
5,13,20,7,4,10,0.2960122699386503,-0.1409456476334043,1.5,10405.880000000003,13-20-7-4
6,13,20,9,1,12,0.299079754601227,-0.1188848037089126,2.0,10409.235,13-20-9-1
7,13,20,9,2,12,0.2960122699386503,-0.11049000021624755,1.4,10694.810000000001,13-20-9-2
8,13,20,9,3,10,0.2898773006134969,-0.14064204539436762,1.5,9736.560000000001,13-20-9-3
9,13,20,9,4,9,0.25766871165644173,-0.1518907732022845,2.0,10437.570000000002,13-20-9-4
10,13,20,11,1,10,0.2791411042944785,-0.10899773682508897,1.0,11023.479999999998,13-20-11-1
11,13,20,11,2,10,0.27607361963190186,-0.08129355456834267,1.5,10691.63,13-20-11-2
12,13,20,11,3,9,0.28067484662576686,-0.15195275287240678,2.0,9818.919999999995,13-20-11-3
13,13,20,11,4,8,0.23773006134969324,-0.1605645204097882,1.0,10121.04,13-20-11-4
14,13,22,3,1,13,0.2852760736196319,-0.11506627328623255,2.25,12407.085000000003,13-22-3-1
15,13,22,3,2,13,0.3266871165644172,-0.1518452657902134,2.25,11054.116000000002,13-22-3-2
16,13,22,3,3,7,0.254601226993865,-0.14070823987580913,2.5,11795.730000000005,13-22-3-3
17,13,22,3,4,3,0.17484662576687116,-0.0849352565298921,inf,12401.12,13-22-3-4
18,13,22,5,1,13,0.3113496932515337,-0.11580307381199847,3.3333333333333335,11690.178000000004,13-22-5-1
19,13,22,5,2,12,0.2960122699386503,-0.08557763375704747,3.0,12574.884000000004,13-22-5-2
20,13,22,5,3,8,0.2561349693251534,-0.13775193497701307,1.6666666666666667,10667.940000000004,13-22-5-3
21,13,22,5,4,5,0.14877300613496933,-0.04151402574184778,inf,11986.060000000003,13-22-5-4
22,13,22,7,1,13,0.3006134969325153,-0.09228072864168578,2.25,11549.525,13-22-7-1
23,13,22,7,2,12,0.2791411042944785,-0.08277291115492602,3.0,11883.465000000002,13-22-7-2
24,13,22,7,3,9,0.23159509202453987,-0.08069230000272602,0.8,10492.42,13-22-7-3
25,13,22,7,4,8,0.19631901840490798,-0.03675528750754442,1.6666666666666667,11502.430000000002,13-22-7-4
26,13,22,9,1,11,0.2852760736196319,-0.0918640771045905,1.75,12321.174999999994,13-22-9-1
27,13,22,9,2,10,0.26533742331288346,-0.07073970004442237,1.5,10959.315000000002,13-22-9-2
28,13,22,9,3,8,0.2223926380368098,-0.07078539587812083,1.0,10770.25,13-22-9-3
29,13,22,9,4,7,0.1901840490797546,-0.04730150854644259,1.3333333333333333,11557.040000000003,13-22-9-4
30,13,22,11,1,10,0.28680981595092025,-0.082066036327107,2.3333333333333335,12094.529999999999,13-22-11-1
31,13,22,11,2,9,0.24846625766871167,-0.051807823706921885,8.0,11814.470000000005,13-22-11-2
32,13,22,11,3,8,0.2561349693251534,-0.05216162021754332,3.0,12144.680000000002,13-22-11-3
33,13,22,11,4,7,0.22699386503067484,-0.04769149214279454,2.5,11998.23,13-22-11-4
34,13,25,3,1,13,0.2929447852760736,-0.11699502273234283,2.25,11478.270000000006,13-25-3-1
35,13,25,3,2,10,0.3067484662576687,-0.14608150211832965,2.3333333333333335,10359.910000000002,13-25-3-2
36,13,25,3,3,6,0.25920245398773006,-0.12703375362527497,2.0,11925.870000000003,13-25-3-3
37,13,25,3,4,3,0.17177914110429449,-0.04926263688906906,inf,13163.62,13-25-3-4
38,13,25,5,1,13,0.3128834355828221,-0.11531957294116602,2.25,12021.710000000003,13-25-5-1
39,13,25,5,2,13,0.32515337423312884,-0.15352652930441707,2.25,11491.745000000003,13-25-5-2
40,13,25,5,3,8,0.22392638036809817,-0.06784258261528134,3.0,13124.530000000004,13-25-5-3
41,13,25,5,4,6,0.18558282208588958,-0.03758337867521112,5.0,12980.75,13-25-5-4
42,13,25,7,1,11,0.3220858895705521,-0.12591371525354672,1.75,11585.970000000003,13-25-7-1
43,13,25,7,2,10,0.299079754601227,-0.07065075092900523,4.0,13056.810000000003,13-25-7-2
44,13,25,7,3,10,0.3006134969325153,-0.1380485915261432,2.3333333333333335,12060.2,13-25-7-3
45,13,25,7,4,8,0.26993865030674846,-0.13882933765588137,1.6666666666666667,11034.550000000005,13-25-7-4
46,13,25,9,1,10,0.3113496932515337,-0.09095157409288304,4.0,13179.124999999998,13-25-9-1
47,13,25,9,2,9,0.2929447852760736,-0.07045041409230579,8.0,12662.165000000006,13-25-9-2
48,13,25,9,3,8,0.25766871165644173,-0.0491059139407354,1.6666666666666667,12234.949999999999,13-25-9-3
49,13,25,9,4,6,0.2085889570552147,-0.0472023950686404,2.0,12142.930000000002,13-25-9-4
50,13,25,11,1,9,0.29141104294478526,-0.09065129229465521,8.0,14227.145,13-25-11-1
51,13,25,11,2,8,0.26226993865030673,-0.05198924913675259,3.0,12288.76,13-25-11-2
52,13,25,11,3,7,0.2254601226993865,-0.0423777124623343,2.5,12464.189999999999,13-25-11-3
53,13,25,11,4,7,0.2147239263803681,-0.0470525501906308,2.5,12733.52,13-25-11-4
54,13,27,3,1,11,0.2929447852760736,-0.1168102596258206,4.5,12197.76,13-27-3-1
55,13,27,3,2,9,0.299079754601227,-0.10914032664273547,3.5,11344.020000000002,13-27-3-2
56,13,27,3,3,6,0.3282208588957055,-0.12703375362527497,5.0,12750.87,13-27-3-3
57,13,27,3,4,4,0.3128834355828221,-0.1262283555977042,inf,13996.830000000002,13-27-3-4
58,13,27,5,1,10,0.3128834355828221,-0.12516414853853605,2.3333333333333335,12008.115000000003,13-27-5-1
59,13,27,5,2,10,0.3052147239263804,-0.15377873003506023,2.3333333333333335,11121.920000000007,13-27-5-2
60,13,27,5,3,6,0.2147239263803681,-0.05284475311065984,5.0,13465.749999999998,13-27-5-3
61,13,27,5,4,5,0.200920245398773,-0.0352089176044589,inf,14637.780000000002,13-27-5-4
62,13,27,7,1,10,0.31901840490797545,-0.12473786833738162,4.0,12128.980000000001,13-27-7-1
63,13,27,7,2,9,0.294478527607362,-0.07055151057968416,8.0,13440.870000000003,13-27-7-2
64,13,27,7,3,8,0.23159509202453987,-0.04962836751514429,3.0,13351.95,13-27-7-3
65,13,27,7,4,6,0.17638036809815952,-0.0470525501906308,2.0,12189.530000000002,13-27-7-4
66,13,27,9,1,10,0.3098159509202454,-0.09202940314319043,4.0,13721.859999999999,13-27-9-1
67,13,27,9,2,9,0.2929447852760736,-0.06075330732875143,8.0,13362.790000000003,13-27-9-2
68,13,27,9,3,7,0.22699386503067484,-0.0423777124623343,2.5,12508.049999999997,13-27-9-3
69,13,27,9,4,6,0.16104294478527606,-0.0470525501906308,2.0,12599.790000000003,13-27-9-4
70,13,27,11,1,9,0.2837423312883436,-0.08971264390343335,8.0,14113.089999999998,13-27-11-1
71,13,27,11,2,7,0.22392638036809817,-0.057675943721482804,2.5,11981.94,13-27-11-2
72,13,27,11,3,7,0.22699386503067484,-0.042944081260966036,2.5,12493.83,13-27-11-3
73,13,27,11,4,7,0.20705521472392638,-0.05931781622985906,2.5,12590.310000000001,13-27-11-4
