,fast,slow,sig,delay,numSell,exposure,drawdown,winLoss,value,zzz
0,3,3,3,1,0,0.0,0.0,inf,10000.0,3-3-3-1
1,3,3,3,2,0,0.0,0.0,inf,10000.0,3-3-3-2
2,3,3,3,3,0,0.0,0.0,inf,10000.0,3-3-3-3
3,3,3,3,4,0,0.0,0.0,inf,10000.0,3-3-3-4
4,3,3,5,1,0,0.0,0.0,inf,10000.0,3-3-5-1
5,3,3,5,2,0,0.0,0.0,inf,10000.0,3-3-5-2
6,3,3,5,3,0,0.0,0.0,inf,10000.0,3-3-5-3
7,3,3,5,4,0,0.0,0.0,inf,10000.0,3-3-5-4
8,3,3,7,1,0,0.0,0.0,inf,10000.0,3-3-7-1
9,3,3,7,2,0,0.0,0.0,inf,10000.0,3-3-7-2
10,3,3,7,3,0,0.0,0.0,inf,10000.0,3-3-7-3
11,3,3,7,4,0,0.0,0.0,inf,10000.0,3-3-7-4
12,3,3,9,1,0,0.0,0.0,inf,10000.0,3-3-9-1
13,3,3,9,2,0,0.0,0.0,inf,10000.0,3-3-9-2
14,3,3,9,3,0,0.0,0.0,inf,10000.0,3-3-9-3
15,3,3,9,4,0,0.0,0.0,inf,10000.0,3-3-9-4
16,3,3,11,1,0,0.0,0.0,inf,10000.0,3-3-11-1
17,3,3,11,2,0,0.0,0.0,inf,10000.0,3-3-11-2
18,3,3,11,3,0,0.0,0.0,inf,10000.0,3-3-11-3
19,3,3,11,4,0,0.0,0.0,inf,10000.0,3-3-11-4
20,3,4,3,1,49,0.45223880597014926,-0.2279798623588195,1.7222222222222223,10285.459999999988,3-4-3-1
21,3,4,3,2,15,0.2865671641791045,-0.13916230905802782,1.5,10256.859999999995,3-4-3-2
22,3,4,3,3,5,0.34776119402985073,-0.15628815404978308,0.6666666666666666,10921.060000000001,3-4-3-3
23,3,4,3,4,0,0.0,0.0,inf,10000.0,3-4-3-4
24,3,4,5,1,37,0.3701492537313433,-0.1588042450434122,1.6428571428571428,10347.839999999993,3-4-5-1
25,3,4,5,2,18,0.39552238805970147,-0.09045695031586501,5.0,14958.820000000002,3-4-5-2
26,3,4,5,3,3,0.21194029850746268,-0.10909245088956811,inf,11126.72,3-4-5-3
27,3,4,5,4,1,0.10597014925373134,-0.07377328034859908,inf,10608.16,3-4-5-4
28,3,4,7,1,28,0.3895522388059702,-0.14551318189195772,1.8,9587.74,3-4-7-1
29,3,4,7,2,16,0.29701492537313434,-0.11395762365247307,1.6666666666666667,10572.309999999998,3-4-7-2
30,3,4,7,3,4,0.3,-0.10828253258767295,inf,11215.590000000002,3-4-7-3
31,3,4,7,4,0,0.0,0.0,inf,10000.0,3-4-7-4
32,3,4,9,1,25,0.3805970149253731,-0.1333484013645758,2.5714285714285716,11882.139999999998,3-4-9-1
33,3,4,9,2,19,0.3402985074626866,-0.1085880034541549,2.1666666666666665,12075.299999999996,3-4-9-2
34,3,4,9,3,8,0.3582089552238806,-0.110223505903661,1.6666666666666667,12330.820000000007,3-4-9-3
35,3,4,9,4,0,0.0,0.0,inf,10000.0,3-4-9-4
36,3,4,11,1,23,0.3328358208955224,-0.1280386844763417,4.75,12656.100000000006,3-4-11-1
37,3,4,11,2,17,0.33880597014925373,-0.12130741470630564,2.4,12316.199999999997,3-4-11-2
38,3,4,11,3,5,0.4,-0.10785311753869904,4.0,13128.810000000005,3-4-11-3
39,3,4,11,4,1,0.35074626865671643,-0.10931703940648357,inf,11672.140000000003,3-4-11-4
40,3,5,3,1,49,0.4253731343283582,-0.1890878861528129,1.8823529411764706,10571.979999999994,3-5-3-1
41,3,5,3,2,17,0.36716417910447763,-0.22186499999999978,1.4285714285714286,9310.590000000004,3-5-3-2
42,3,5,3,3,3,0.13582089552238805,-0.11105900000000002,2.0,9710.49,3-5-3-3
43,3,5,3,4,0,0.0,0.0,inf,10000.0,3-5-3-4
44,3,5,5,1,34,0.3805970149253731,-0.18820871202944667,1.6153846153846154,9489.43,3-5-5-1
45,3,5,5,2,18,0.35074626865671643,-0.13637719564732012,5.0,12100.60999999999,3-5-5-2
46,3,5,5,3,5,0.21044776119402986,-0.06588346806901134,4.0,11962.769999999999,3-5-5-3
47,3,5,5,4,1,0.21343283582089553,-0.09162760734028413,inf,10295.0,3-5-5-4
48,3,5,7,1,30,0.3701492537313433,-0.19031606541517443,1.7272727272727273,9328.090000000006,3-5-7-1
49,3,5,7,2,20,0.3522388059701492,-0.1752688224148715,3.0,9925.319999999994,3-5-7-2
50,3,5,7,3,5,0.09402985074626866,-0.07413614136891737,4.0,10742.529999999999,3-5-7-3
51,3,5,7,4,0,0.0,0.0,inf,10000.0,3-5-7-4
52,3,5,9,1,26,0.36716417910447763,-0.1415823142193407,2.25,10797.289999999992,3-5-9-1
53,3,5,9,2,17,0.34626865671641793,-0.1336145542766437,2.4,11365.480000000001,3-5-9-2
54,3,5,9,3,6,0.23432835820895523,-0.14227039052044296,2.0,10741.989999999998,3-5-9-3
55,3,5,9,4,0,0.0,0.0,inf,10000.0,3-5-9-4
56,3,5,11,1,23,0.33880597014925373,-0.1675199160022126,3.6,11993.66,3-5-11-1
57,3,5,11,2,15,0.29850746268656714,-0.13348865976905194,2.75,12422.709999999995,3-5-11-2
58,3,5,11,3,6,0.2507462686567164,-0.13447203904435204,2.0,11240.509999999998,3-5-11-3
59,3,5,11,4,2,0.12985074626865672,-0.07339139044532961,inf,10665.67,3-5-11-4
60,3,6,3,1,45,0.4044776119402985,-0.13568311025017382,1.6470588235294117,10986.899999999998,3-6-3-1
61,3,6,3,2,19,0.34776119402985073,-0.12544705693422378,5.333333333333333,12769.110000000002,3-6-3-2
62,3,6,3,3,5,0.4134328358208955,-0.13846877161632443,inf,14107.87,3-6-3-3
63,3,6,3,4,1,0.10597014925373134,-0.07377328034859908,inf,10608.16,3-6-3-4
64,3,6,5,1,32,0.36268656716417913,-0.21779961005157217,1.6666666666666667,9340.760000000002,3-6-5-1
65,3,6,5,2,20,0.3417910447761194,-0.13879934676990316,4.0,11455.37999999999,3-6-5-2
66,3,6,5,3,4,0.13134328358208955,-0.06565423813225295,inf,11747.48,3-6-5-3
67,3,6,5,4,1,0.05970149253731343,-0.08759116033276101,0.0,9922.510000000002,3-6-5-4
68,3,6,7,1,29,0.3567164179104478,-0.16579882209056562,2.625,10439.540000000003,3-6-7-1
69,3,6,7,2,19,0.3761194029850746,-0.17107384543070958,2.8,10433.33,3-6-7-2
70,3,6,7,3,6,0.13432835820895522,-0.13455782562270371,2.0,10294.750000000002,3-6-7-3
71,3,6,7,4,1,0.058208955223880594,-0.08750498356571595,0.0,9933.220000000001,3-6-7-4
72,3,6,9,1,24,0.3537313432835821,-0.16780696816273508,3.0,11737.970000000007,3-6-9-1
73,3,6,9,2,17,0.33134328358208953,-0.14970751511998107,4.666666666666667,12566.499999999998,3-6-9-2
74,3,6,9,3,6,0.16119402985074627,-0.103960160374065,2.0,11280.119999999997,3-6-9-3
75,3,6,9,4,1,0.041791044776119404,-0.01347531866025071,inf,10608.84,3-6-9-4
76,3,6,11,1,22,0.3417910447761194,-0.168725399503002,4.5,12243.979999999998,3-6-11-1
77,3,6,11,2,18,0.3567164179104478,-0.1502227347994351,5.0,13819.199999999993,3-6-11-2
0,3,6,11,3,7,0.1791044776119403,-0.07375001955334935,6.0,12885.570000000003,3-6-11-3
1,3,6,11,4,3,0.29701492537313434,-0.07394119380523631,inf,13417.810000000003,3-6-11-4
2,5,6,3,1,41,0.4462686567164179,-0.1651448607421063,2.727272727272727,11413.619999999995,5-6-3-1
3,5,6,3,2,15,0.3686567164179104,-0.11221654214182739,2.75,12059.780000000002,5-6-3-2
4,5,6,3,3,3,0.22388059701492538,-0.0640976906480291,inf,11502.330000000002,5-6-3-3
5,5,6,3,4,2,0.17313432835820897,-0.13343187167111592,1.0,10381.470000000001,5-6-3-4
6,5,6,5,1,32,0.38656716417910447,-0.15810892507586174,1.9090909090909092,10391.519999999993,5-6-5-1
7,5,6,5,2,22,0.3895522388059702,-0.16095236385827597,2.142857142857143,10628.230000000001,5-6-5-2
8,5,6,5,3,3,0.3402985074626866,-0.1462335414852501,0.5,14139.570000000002,5-6-5-3
9,5,6,5,4,2,0.1761194029850746,-0.14197053403614615,0.0,9591.67,5-6-5-4
10,5,6,7,1,27,0.3895522388059702,-0.14000567302779512,4.4,11476.729999999998,5-6-7-1
11,5,6,7,2,16,0.36716417910447763,-0.1346973409313334,3.0,11362.1,5-6-7-2
12,5,6,7,3,7,0.3492537313432836,-0.161538263679773,1.3333333333333333,11745.68,5-6-7-3
13,5,6,7,4,3,0.27313432835820894,-0.12278055369356772,0.5,9981.879999999997,5-6-7-4
14,5,6,9,1,24,0.3746268656716418,-0.1343863276738252,3.8,12835.490000000009,5-6-9-1
15,5,6,9,2,16,0.31492537313432833,-0.14000192952210766,3.0,11488.920000000006,5-6-9-2
16,5,6,9,3,8,0.3119402985074627,-0.14391303504750325,1.6666666666666667,11616.449999999999,5-6-9-3
17,5,6,9,4,4,0.16417910447761194,-0.17916776322727213,0.3333333333333333,9580.579999999996,5-6-9-4
18,5,6,11,1,21,0.34776119402985073,-0.13542534844858561,6.0,13987.979999999996,5-6-11-1
19,5,6,11,2,14,0.29253731343283584,-0.13985833678359547,6.0,12550.579999999998,5-6-11-2
20,5,6,11,3,6,0.1582089552238806,-0.09124957077032429,2.0,10875.09,5-6-11-3
21,5,6,11,4,4,0.1373134328358209,-0.10116211696540031,1.0,10219.879999999997,5-6-11-4
22,5,8,3,1,30,0.3835820895522388,-0.14351615948925095,3.2857142857142856,11497.68999999999,5-8-3-1
23,5,8,3,2,19,0.3895522388059702,-0.1588412481588604,2.1666666666666665,10858.220000000003,5-8-3-2
24,5,8,3,3,7,0.30149253731343284,-0.11115100000000003,1.3333333333333333,10611.770000000002,5-8-3-3
25,5,8,3,4,2,0.22238805970149253,-0.09057213385773276,1.0,9893.599999999999,5-8-3-4
26,5,8,5,1,28,0.37910447761194027,-0.1499203368665712,2.111111111111111,10551.910000000003,5-8-5-1
27,5,8,5,2,19,0.3537313432835821,-0.14511532423620327,1.7142857142857142,10173.110000000002,5-8-5-2
28,5,8,5,3,7,0.25970149253731345,-0.09067763545104057,2.5,11686.300000000003,5-8-5-3
29,5,8,5,4,0,0.0,0.0,inf,10000.0,5-8-5-4
30,5,8,7,1,26,0.3746268656716418,-0.14564617632160193,3.3333333333333335,11919.859999999999,5-8-7-1
31,5,8,7,2,20,0.35074626865671643,-0.13396965158869056,3.0,11059.98,5-8-7-2
32,5,8,7,3,6,0.31343283582089554,-0.14080975998559264,5.0,12028.97,5-8-7-3
33,5,8,7,4,2,0.18358208955223881,-0.09102583909466633,1.0,10361.9,5-8-7-4
34,5,8,9,1,21,0.36268656716417913,-0.1353103478137456,3.2,13236.91,5-8-9-1
35,5,8,9,2,19,0.3656716417910448,-0.13942195938742877,5.333333333333333,12689.590000000002,5-8-9-2
36,5,8,9,3,6,0.22835820895522388,-0.11217405606467656,5.0,11806.779999999997,5-8-9-3
37,5,8,9,4,3,0.3656716417910448,-0.09147905148098208,2.0,10807.24,5-8-9-4
38,5,8,11,1,19,0.33880597014925373,-0.13490860905369537,5.333333333333333,13144.809999999998,5-8-11-1
39,5,8,11,2,16,0.3597014925373134,-0.13987531473056378,3.0,12478.430000000002,5-8-11-2
40,5,8,11,3,7,0.2880597014925373,-0.15480430928678562,6.0,11320.230000000001,5-8-11-3
41,5,8,11,4,4,0.4552238805970149,-0.2100197971649123,1.0,11953.980000000001,5-8-11-4
42,5,10,3,1,28,0.3611940298507463,-0.14998739485747,3.0,11738.659999999996,5-10-3-1
43,5,10,3,2,20,0.3417910447761194,-0.13842779934979849,2.3333333333333335,10792.270000000002,5-10-3-2
44,5,10,3,3,8,0.2537313432835821,-0.054434835314793095,3.0,12236.230000000005,5-10-3-3
45,5,10,3,4,3,0.3746268656716418,-0.10875573766592948,inf,12329.620000000003,5-10-3-4
46,5,10,5,1,26,0.3611940298507463,-0.15506345962091128,2.7142857142857144,11189.080000000004,5-10-5-1
47,5,10,5,2,20,0.3537313432835821,-0.15265309829383267,3.0,10886.640000000001,5-10-5-2
48,5,10,5,3,7,0.19850746268656716,-0.13879465273352415,6.0,10745.980000000003,5-10-5-3
49,5,10,5,4,3,0.4746268656716418,-0.1652876160638448,inf,12316.409999999998,5-10-5-4
50,5,10,7,1,22,0.3582089552238806,-0.13502226042671897,2.142857142857143,12395.480000000003,5-10-7-1
51,5,10,7,2,20,0.3522388059701492,-0.14727556283331367,4.0,12113.09000000001,5-10-7-2
52,5,10,7,3,8,0.23880597014925373,-0.10270042373106075,3.0,11381.549999999997,5-10-7-3
53,5,10,7,4,3,0.208955223880597,-0.09147905148098208,0.5,10050.28,5-10-7-4
54,5,10,9,1,20,0.34776119402985073,-0.13893988188274295,4.0,12311.279999999993,5-10-9-1
55,5,10,9,2,18,0.3582089552238806,-0.14047654541212815,5.0,12501.39,5-10-9-2
56,5,10,9,3,9,0.2298507462686567,-0.17002776406656447,3.5,10963.3,5-10-9-3
57,5,10,9,4,2,0.2,-0.09345533080082541,1.0,10827.949999999999,5-10-9-4
58,5,10,11,1,17,0.3074626865671642,-0.14010345761630214,4.666666666666667,12555.729999999998,5-10-11-1
59,5,10,11,2,14,0.30149253731343284,-0.13896130295101133,6.0,13183.930000000004,5-10-11-2
60,5,10,11,3,9,0.24776119402985075,-0.16941509419934883,3.5,11786.830000000004,5-10-11-3
61,5,10,11,4,4,0.2701492537313433,-0.16436394839854235,1.0,11038.439999999997,5-10-11-4
62,7,8,3,1,31,0.4014925373134328,-0.16351586814960792,2.1,10162.880000000006,7-8-3-1
63,7,8,3,2,20,0.4044776119402985,-0.1233821545577187,3.0,12680.259999999995,7-8-3-2
64,7,8,3,3,5,0.29850746268656714,-0.19722610347040823,4.0,10527.539999999999,7-8-3-3
65,7,8,3,4,1,0.3895522388059702,-0.1648234546541729,inf,11586.61,7-8-3-4
66,7,8,5,1,28,0.3805970149253731,-0.1612516413730727,1.5454545454545454,10071.35000000001,7-8-5-1
67,7,8,5,2,19,0.32238805970149254,-0.14792025956563684,1.7142857142857142,11025.899999999998,7-8-5-2
68,7,8,5,3,5,0.23432835820895523,-0.13857265225307874,4.0,11082.74,7-8-5-3
69,7,8,5,4,1,0.026865671641791045,-0.0034882212473993793,inf,10370.150000000001,7-8-5-4
70,7,8,7,1,24,0.3805970149253731,-0.13451014912648546,2.4285714285714284,11398.289999999995,7-8-7-1
71,7,8,7,2,17,0.3253731343283582,-0.13940668745920062,3.25,12543.310000000003,7-8-7-2
72,7,8,7,3,7,0.2298507462686567,-0.13446509684832705,2.5,11053.920000000002,7-8-7-3
73,7,8,7,4,3,0.11343283582089553,-0.1736386780728532,0.5,9918.48,7-8-7-4
74,7,8,9,1,20,0.3567164179104478,-0.1404481562037662,5.666666666666667,12498.399999999998,7-8-9-1
75,7,8,9,2,17,0.3373134328358209,-0.13905737229836937,4.666666666666667,12826.920000000004,7-8-9-2
76,7,8,9,3,9,0.3492537313432836,-0.19547031956689417,1.25,10383.879999999997,7-8-9-3
77,7,8,9,4,2,0.12388059701492538,-0.16683520490882758,1.0,9626.160000000002,7-8-9-4
0,7,8,11,1,17,0.3283582089552239,-0.13999777065484045,4.666666666666667,12625.459999999997,7-8-11-1
1,7,8,11,2,15,0.3358208955223881,-0.1252992885817648,14.0,14159.359999999995,7-8-11-2
2,7,8,11,3,9,0.30149253731343284,-0.15570586989501514,8.0,12536.44,7-8-11-3
3,7,8,11,4,2,0.1701492537313433,-0.09130916865912064,1.0,10333.49,7-8-11-4
4,7,9,3,1,30,0.3835820895522388,-0.160389069853356,1.7272727272727273,9898.150000000007,7-9-3-1
5,7,9,3,2,22,0.3686567164179104,-0.16867162814585535,1.75,9401.760000000004,7-9-3-2
6,7,9,3,3,5,0.3283582089552239,-0.19164432695354094,1.5,11432.050000000001,7-9-3-3
7,7,9,3,4,0,0.0,-0.02851764097703871,inf,11324.98,7-9-3-4
8,7,9,5,1,27,0.37910447761194027,-0.13706395375688366,1.25,10273.270000000004,7-9-5-1
9,7,9,5,2,21,0.33880597014925373,-0.13825034508439052,3.2,12153.52000000001,7-9-5-2
10,7,9,5,3,7,0.33432835820895523,-0.1921423507783205,1.3333333333333333,10987.6,7-9-5-3
11,7,9,5,4,3,0.15074626865671642,-0.09102583909466616,2.0,10317.759999999998,7-9-5-4
12,7,9,7,1,22,0.3537313432835821,-0.13389758908904378,2.6666666666666665,12048.18,7-9-7-1
13,7,9,7,2,20,0.34626865671641793,-0.1404003767276644,5.666666666666667,13034.780000000006,7-9-7-2
14,7,9,7,3,10,0.24925373134328357,-0.16933190277648882,4.0,12034.990000000002,7-9-7-3
15,7,9,7,4,1,0.07313432835820896,-0.028339999999999962,inf,10745.68,7-9-7-4
16,7,9,9,1,20,0.3582089552238806,-0.13963952550659778,5.666666666666667,12069.95,7-9-9-1
17,7,9,9,2,17,0.34626865671641793,-0.1406813153733736,3.25,12581.939999999999,7-9-9-2
18,7,9,9,3,10,0.3402985074626866,-0.1703374026965711,9.0,13129.369999999999,7-9-9-3
19,7,9,9,4,4,0.28955223880597014,-0.136925111099443,3.0,11106.44,7-9-9-4
20,7,9,11,1,19,0.32238805970149254,-0.13936189701604412,3.75,11793.509999999995,7-9-11-1
21,7,9,11,2,16,0.34626865671641793,-0.16970299971000213,4.333333333333333,12480.979999999996,7-9-11-2
22,7,9,11,3,10,0.33134328358208953,-0.13666545522802317,4.0,12635.080000000005,7-9-11-3
23,7,9,11,4,3,0.19850746268656716,-0.1658000297132671,2.0,10236.129999999997,7-9-11-4
24,7,10,3,1,28,0.4014925373134328,-0.1712377376118434,1.5454545454545454,10610.700000000003,7-10-3-1
25,7,10,3,2,22,0.4059701492537313,-0.1380369801081852,2.142857142857143,11786.010000000007,7-10-3-2
26,7,10,3,3,7,0.44328358208955226,-0.13891225335834564,2.5,12517.000000000002,7-10-3-3
27,7,10,3,4,0,0.0,0.0,inf,10000.0,7-10-3-4
28,7,10,5,1,26,0.3567164179104478,-0.13453767233316438,1.6,10680.949999999993,7-10-5-1
29,7,10,5,2,20,0.3537313432835821,-0.1399702556122899,3.0,12334.250000000005,7-10-5-2
30,7,10,5,3,8,0.2716417910447761,-0.18401307461547795,7.0,11872.32,7-10-5-3
31,7,10,5,4,2,0.21343283582089553,-0.1778786718450852,1.0,10206.679999999998,7-10-5-4
32,7,10,7,1,22,0.36716417910447763,-0.13885382258615456,3.4,11671.880000000005,7-10-7-1
33,7,10,7,2,21,0.3597014925373134,-0.18483878043430568,4.25,12173.110000000004,7-10-7-2
34,7,10,7,3,9,0.20149253731343283,-0.1520992307860885,3.5,11256.669999999995,7-10-7-3
35,7,10,7,4,2,0.1761194029850746,-0.09089068435565674,1.0,10443.85,7-10-7-4
36,7,10,9,1,19,0.34328358208955223,-0.13977581506885858,3.75,12011.85999999999,7-10-9-1
37,7,10,9,2,18,0.36268656716417913,-0.16958416144320437,3.5,12222.240000000002,7-10-9-2
38,7,10,9,3,12,0.3164179104477612,-0.13715343298468827,5.0,12678.1,7-10-9-3
39,7,10,9,4,3,0.18507462686567164,-0.16624790964733802,2.0,10157.22,7-10-9-4
40,7,10,11,1,17,0.31492537313432833,-0.1703154151495178,3.25,11770.47,7-10-11-1
41,7,10,11,2,15,0.3208955223880597,-0.1696300776923259,6.5,12887.219999999996,7-10-11-2
42,7,10,11,3,12,0.3074626865671642,-0.13715145906083295,5.0,12550.740000000002,7-10-11-3
43,7,10,11,4,4,0.25223880597014925,-0.16566446128440246,3.0,10830.119999999997,7-10-11-4
44,7,12,3,1,24,0.382089552238806,-0.14411447736086638,2.4285714285714284,11134.989999999998,7-12-3-1
45,7,12,3,2,20,0.382089552238806,-0.13480913273623424,3.0,11796.260000000007,7-12-3-2
46,7,12,3,3,7,0.29701492537313434,-0.16965664853295304,2.5,11016.419999999998,7-12-3-3
47,7,12,3,4,2,0.06865671641791045,-0.19947651124477273,0.0,9160.329999999998,7-12-3-4
48,7,12,5,1,23,0.39104477611940297,-0.1338482359298239,3.6,12815.920000000002,7-12-5-1
49,7,12,5,2,19,0.3686567164179104,-0.13893186474386862,8.5,13061.540000000008,7-12-5-2
50,7,12,5,3,13,0.31044776119402984,-0.17035319658749123,3.3333333333333335,10749.539999999995,7-12-5-3
51,7,12,5,4,5,0.39850746268656717,-0.08995622971115531,4.0,11876.69,7-12-5-4
52,7,12,7,1,20,0.3656716417910448,-0.18367487969992558,3.0,11615.419999999998,7-12-7-1
53,7,12,7,2,18,0.3522388059701492,-0.15107824049630425,3.5,12205.679999999998,7-12-7-2
54,7,12,7,3,10,0.29701492537313434,-0.16581070368240255,9.0,12406.679999999993,7-12-7-3
55,7,12,7,4,4,0.21044776119402986,-0.16626210410976144,3.0,10956.32,7-12-7-4
56,7,12,9,1,19,0.33880597014925373,-0.16977398419671186,2.8,11673.120000000003,7-12-9-1
57,7,12,9,2,17,0.3597014925373134,-0.15151311427524936,4.666666666666667,12824.239999999996,7-12-9-2
58,7,12,9,3,12,0.32985074626865674,-0.16692976619898667,3.0,11596.200000000006,7-12-9-3
59,7,12,9,4,5,0.2716417910447761,-0.16562487138329843,4.0,11130.259999999995,7-12-9-4
60,7,12,11,1,17,0.3208955223880597,-0.1696858112169142,3.25,11617.869999999995,7-12-11-1
61,7,12,11,2,15,0.29850746268656714,-0.1371666286756325,4.0,13281.470000000001,7-12-11-2
62,7,12,11,3,11,0.29402985074626864,-0.15484156635342727,2.6666666666666665,11695.86,7-12-11-3
63,7,12,11,4,6,0.23134328358208955,-0.16675529384106452,5.0,10894.199999999993,7-12-11-4
64,7,13,3,1,22,0.3835820895522388,-0.13356766256590505,2.6666666666666665,11986.470000000001,7-13-3-1
65,7,13,3,2,19,0.4164179104477612,-0.15897009007073648,2.8,12316.170000000004,7-13-3-2
66,7,13,3,3,9,0.39104477611940297,-0.1698945126332742,3.5,11674.57,7-13-3-3
67,7,13,3,4,3,0.28507462686567164,-0.17842376921707845,0.5,9365.48,7-13-3-4
68,7,13,5,1,22,0.3761194029850746,-0.135357725685177,3.4,12233.43000000001,7-13-5-1
69,7,13,5,2,18,0.3880597014925373,-0.1392883177016278,5.0,12259.050000000008,7-13-5-2
70,7,13,5,3,13,0.2791044776119403,-0.17030861391986013,3.3333333333333335,11108.31999999999,7-13-5-3
71,7,13,5,4,6,0.3417910447761194,-0.13905304101149352,1.0,10624.0,7-13-5-4
72,7,13,7,1,20,0.34776119402985073,-0.1846251566982023,3.0,11209.319999999985,7-13-7-1
73,7,13,7,2,17,0.382089552238806,-0.15152763373267555,4.666666666666667,12946.619999999992,7-13-7-2
74,7,13,7,3,12,0.32985074626865674,-0.1669473264132686,3.0,11560.710000000003,7-13-7-3
75,7,13,7,4,3,0.18358208955223881,-0.1669097315075443,2.0,10113.899999999998,7-13-7-4
76,7,13,9,1,18,0.34328358208955223,-0.1698678995698995,2.6,11997.400000000005,7-13-9-1
77,7,13,9,2,16,0.3641791044776119,-0.15122007300750986,7.0,13617.539999999997,7-13-9-2
0,7,13,9,3,14,0.32985074626865674,-0.16280509425057824,1.8,11910.860000000004,7-13-9-3
1,7,13,9,4,8,0.23880597014925373,-0.16706070509700302,7.0,11521.149999999996,7-13-9-4
2,7,13,11,1,16,0.3164179104477612,-0.1365338831125368,4.333333333333333,12506.769999999995,7-13-11-1
3,7,13,11,2,14,0.3164179104477612,-0.13717337488611883,6.0,13288.100000000002,7-13-11-2
4,7,13,11,3,11,0.25522388059701495,-0.15484156635342727,2.6666666666666665,11398.010000000002,7-13-11-3
5,7,13,11,4,8,0.2298507462686567,-0.16723394457751342,7.0,11130.869999999994,7-13-11-4
6,7,15,3,1,22,0.38656716417910447,-0.13381893637074788,3.4,13092.439999999999,7-15-3-1
7,7,15,3,2,19,0.3895522388059702,-0.134903850346662,3.75,13389.549999999997,7-15-3-2
8,7,15,3,3,8,0.2716417910447761,-0.1895356772742209,3.0,11305.109999999995,7-15-3-3
9,7,15,3,4,3,0.14477611940298507,-0.2245191604683131,0.0,8870.159999999998,7-15-3-4
10,7,15,5,1,21,0.3582089552238806,-0.13949569712582618,6.0,12797.590000000002,7-15-5-1
11,7,15,5,2,16,0.37910447761194027,-0.12513893115100658,4.333333333333333,13170.43,7-15-5-2
12,7,15,5,3,9,0.33134328358208953,-0.1553728185716253,2.0,11476.010000000004,7-15-5-3
13,7,15,5,4,3,0.1925373134328358,-0.0916803562556889,2.0,10591.68,7-15-5-4
14,7,15,7,1,20,0.34776119402985073,-0.18379239999122568,4.0,12322.150000000001,7-15-7-1
15,7,15,7,2,16,0.3716417910447761,-0.15115033692945085,4.333333333333333,13412.359999999995,7-15-7-2
16,7,15,7,3,13,0.34776119402985073,-0.16713029637242535,2.25,11533.730000000003,7-15-7-3
17,7,15,7,4,5,0.29701492537313434,-0.1652054323534469,1.5,10481.089999999997,7-15-7-4
18,7,15,9,1,18,0.3492537313432836,-0.16982097729484066,5.0,12733.709999999995,7-15-9-1
19,7,15,9,2,15,0.3373134328358209,-0.1370407383904518,6.5,13947.670000000002,7-15-9-2
20,7,15,9,3,12,0.29850746268656714,-0.15483842100553258,3.0,11724.849999999997,7-15-9-3
21,7,15,9,4,4,0.2,-0.16724493234844018,3.0,10058.069999999996,7-15-9-4
22,7,15,11,1,17,0.33880597014925373,-0.13656656763561742,7.5,13566.880000000001,7-15-11-1
23,7,15,11,2,14,0.3253731343283582,-0.13681396710048632,6.0,13222.080000000007,7-15-11-2
24,7,15,11,3,12,0.25671641791044775,-0.15301955404542986,2.0,11709.309999999998,7-15-11-3
25,7,15,11,4,7,0.21194029850746268,-0.1695891028478478,2.5,10986.279999999995,7-15-11-4
26,9,10,3,1,25,0.3656716417910448,-0.1373939813374402,2.5714285714285716,12473.380000000003,9-10-3-1
27,9,10,3,2,16,0.33134328358208953,-0.12184325674562702,4.333333333333333,12837.539999999995,9-10-3-2
28,9,10,3,3,5,0.3805970149253731,-0.10835433594689949,4.0,12978.509999999995,9-10-3-3
29,9,10,3,4,1,0.15223880597014924,-0.09063326222124982,inf,10239.539999999999,9-10-3-4
30,9,10,5,1,23,0.3611940298507463,-0.13948658303564004,6.666666666666667,13864.970000000005,9-10-5-1
31,9,10,5,2,19,0.33432835820895523,-0.16940624771023136,2.8,11949.699999999999,9-10-5-2
32,9,10,5,3,8,0.23582089552238805,-0.13689955024732656,1.6666666666666667,11620.619999999999,9-10-5-3
33,9,10,5,4,3,0.16716417910447762,-0.09120000000000013,2.0,10767.989999999998,9-10-5-4
34,9,10,7,1,22,0.3656716417910448,-0.18484868971461885,2.6666666666666665,11914.010000000002,9-10-7-1
35,9,10,7,2,20,0.37910447761194027,-0.1516625396483616,3.0,12704.21999999999,9-10-7-2
36,9,10,7,3,13,0.37910447761194027,-0.10487723960763506,2.25,12737.220000000001,9-10-7-3
37,9,10,7,4,5,0.16716417910447762,-0.10249630315366716,inf,11116.870000000004,9-10-7-4
38,9,10,9,1,20,0.3358208955223881,-0.16982376546933445,3.0,12866.15,9-10-9-1
39,9,10,9,2,18,0.35074626865671643,-0.15097133575402288,5.0,12930.339999999997,9-10-9-2
40,9,10,9,3,14,0.31791044776119404,-0.1619024556124604,2.5,11693.449999999995,9-10-9-3
41,9,10,9,4,6,0.3402985074626866,-0.15648772870988273,5.0,12462.589999999998,9-10-9-4
42,9,10,11,1,16,0.3044776119402985,-0.15534050235726335,3.0,12769.829999999994,9-10-11-1
43,9,10,11,2,15,0.3044776119402985,-0.137042134899456,6.5,12751.729999999996,9-10-11-2
44,9,10,11,3,11,0.2208955223880597,-0.1627668720635418,2.6666666666666665,11568.560000000005,9-10-11-3
45,9,10,11,4,3,0.11044776119402985,-0.17086707636934534,0.5,11302.909999999998,9-10-11-4
46,9,12,3,1,25,0.37910447761194027,-0.18528162362936385,3.1666666666666665,12909.079999999998,9-12-3-1
47,9,12,3,2,18,0.3567164179104478,-0.15169010118518714,3.5,11669.259999999998,9-12-3-2
48,9,12,3,3,8,0.3253731343283582,-0.1913689208107614,3.0,10785.050000000001,9-12-3-3
49,9,12,3,4,3,0.2835820895522388,-0.15565562084912557,inf,11690.359999999999,9-12-3-4
50,9,12,5,1,22,0.3611940298507463,-0.18410277363251693,2.142857142857143,11911.309999999996,9-12-5-1
51,9,12,5,2,18,0.3582089552238806,-0.1514611465459506,2.6,12477.719999999998,9-12-5-2
52,9,12,5,3,10,0.28507462686567164,-0.166495678878139,2.3333333333333335,11514.669999999998,9-12-5-3
53,9,12,5,4,5,0.32686567164179103,-0.15595020642296212,4.0,11449.549999999996,9-12-5-4
54,9,12,7,1,20,0.35074626865671643,-0.17088010765385622,2.3333333333333335,11928.709999999994,9-12-7-1
55,9,12,7,2,17,0.37910447761194027,-0.1504364331833019,3.25,12491.749999999998,9-12-7-2
56,9,12,7,3,12,0.3208955223880597,-0.10944400708690703,5.0,12513.5,9-12-7-3
57,9,12,7,4,8,0.291044776119403,-0.15517035234916798,7.0,11832.619999999995,9-12-7-4
58,9,12,9,1,19,0.30895522388059704,-0.16959103745627394,3.75,12826.889999999992,9-12-9-1
59,9,12,9,2,16,0.3283582089552239,-0.13664830545711312,4.333333333333333,12914.41,9-12-9-2
60,9,12,9,3,14,0.3074626865671642,-0.15291072984921364,6.0,12413.449999999999,9-12-9-3
61,9,12,9,4,7,0.19552238805970149,-0.1531147076865004,6.0,10679.919999999998,9-12-9-4
62,9,12,11,1,15,0.30895522388059704,-0.1361362666153961,6.5,12920.459999999997,9-12-11-1
63,9,12,11,2,13,0.28955223880597014,-0.126667852835933,inf,13455.140000000001,9-12-11-2
64,9,12,11,3,12,0.27761194029850744,-0.1511887793399513,11.0,12585.209999999994,9-12-11-3
65,9,12,11,4,6,0.20149253731343283,-0.12764672765266366,5.0,10957.929999999997,9-12-11-4
66,9,14,3,1,23,0.35522388059701493,-0.18371333436158907,2.8333333333333335,11576.360000000006,9-14-3-1
67,9,14,3,2,15,0.34626865671641793,-0.15180221147862716,2.75,12810.889999999998,9-14-3-2
68,9,14,3,3,10,0.32238805970149254,-0.16722023824388785,2.3333333333333335,11577.739999999994,9-14-3-3
69,9,14,3,4,3,0.21343283582089553,-0.10938994771977106,inf,11407.600000000002,9-14-3-4
70,9,14,5,1,21,0.3656716417910448,-0.18437943969173848,2.5,11922.33,9-14-5-1
71,9,14,5,2,18,0.3447761194029851,-0.15069702158363119,3.5,13319.21,9-14-5-2
72,9,14,5,3,11,0.23134328358208955,-0.10886444088909487,2.6666666666666665,11718.439999999997,9-14-5-3
73,9,14,5,4,6,0.25970149253731345,-0.1548310901464546,5.0,10956.100000000004,9-14-5-4
74,9,14,7,1,20,0.3582089552238806,-0.16931886574217397,4.0,12347.580000000005,9-14-7-1
75,9,14,7,2,16,0.3447761194029851,-0.13626499030078626,4.333333333333333,13256.32,9-14-7-2
76,9,14,7,3,14,0.3238805970149254,-0.1565686975180505,3.6666666666666665,11159.460000000003,9-14-7-3
77,9,14,7,4,10,0.26865671641791045,-0.1534948950679289,4.0,11351.66,9-14-7-4
0,9,14,9,1,17,0.33432835820895523,-0.1361815733982652,7.5,13948.549999999997,9-14-9-1
1,9,14,9,2,14,0.30895522388059704,-0.1275039186355833,13.0,13113.069999999996,9-14-9-2
2,9,14,9,3,14,0.30597014925373134,-0.15143374616737967,6.0,13299.890000000001,9-14-9-3
3,9,14,9,4,9,0.24925373134328357,-0.12280988449208947,8.0,11951.739999999994,9-14-9-4
4,9,14,11,1,16,0.3328358208955224,-0.15419723596655868,15.0,12903.239999999996,9-14-11-1
5,9,14,11,2,14,0.3119402985074627,-0.1505501090937023,13.0,13261.09,9-14-11-2
6,9,14,11,3,13,0.29402985074626864,-0.12907754871458305,12.0,13555.550000000003,9-14-11-3
7,9,14,11,4,9,0.28059701492537314,-0.12982679378248646,8.0,12285.619999999999,9-14-11-4
8,9,15,3,1,22,0.34626865671641793,-0.18407126043322794,2.142857142857143,11661.929999999997,9-15-3-1
9,9,15,3,2,16,0.3582089552238806,-0.15162650058744298,3.0,12411.169999999995,9-15-3-2
10,9,15,3,3,11,0.3164179104477612,-0.1659336284671428,4.5,11669.249999999995,9-15-3-3
11,9,15,3,4,1,0.24477611940298508,-0.09140830096235579,inf,10846.3,9-15-3-4
12,9,15,5,1,21,0.3582089552238806,-0.1696264475985917,2.5,11954.599999999995,9-15-5-1
13,9,15,5,2,16,0.32238805970149254,-0.15156872050208833,7.0,13758.729999999998,9-15-5-2
14,9,15,5,3,13,0.26417910447761195,-0.16327398969141935,2.25,12157.190000000004,9-15-5-3
15,9,15,5,4,6,0.1791044776119403,-0.15581592272554637,5.0,11014.969999999996,9-15-5-4
16,9,15,7,1,19,0.3373134328358209,-0.16989595100595134,5.333333333333333,13043.629999999997,9-15-7-1
17,9,15,7,2,15,0.32686567164179103,-0.13721829577276967,4.0,12896.370000000006,9-15-7-2
18,9,15,7,3,13,0.30149253731343284,-0.15668917337678667,3.3333333333333335,10880.689999999997,9-15-7-3
19,9,15,7,4,10,0.2701492537313433,-0.1539507341797891,4.0,11319.339999999997,9-15-7-4
20,9,15,9,1,17,0.3328358208955224,-0.12769975015600837,16.0,13985.19,9-15-9-1
21,9,15,9,2,15,0.31791044776119404,-0.12502372711914814,14.0,13666.500000000004,9-15-9-2
22,9,15,9,3,14,0.3,-0.12966823203900713,6.0,13704.490000000002,9-15-9-3
23,9,15,9,4,9,0.2507462686567164,-0.11983072951321434,3.5,11867.160000000003,9-15-9-4
24,9,15,11,1,15,0.33134328358208953,-0.15372326538562597,14.0,12487.259999999993,9-15-11-1
25,9,15,11,2,14,0.3194029850746269,-0.15072282727437392,13.0,13114.490000000003,9-15-11-2
26,9,15,11,3,13,0.29402985074626864,-0.12942956859224072,12.0,13876.450000000004,9-15-11-3
27,9,15,11,4,9,0.2671641791044776,-0.09776894947994984,inf,12954.749999999998,9-15-11-4
28,9,17,3,1,20,0.34328358208955223,-0.18475119518929772,2.3333333333333335,11713.470000000005,9-17-3-1
29,9,17,3,2,14,0.291044776119403,-0.12467692463007525,13.0,13247.41,9-17-3-2
30,9,17,3,3,9,0.24925373134328357,-0.16524028857056236,8.0,11588.47,9-17-3-3
31,9,17,3,4,3,0.10597014925373134,-0.0946450504947905,2.0,9883.419999999998,9-17-3-4
32,9,17,5,1,18,0.3402985074626866,-0.1697752406244023,5.0,12696.970000000005,9-17-5-1
33,9,17,5,2,16,0.31791044776119404,-0.15150063869135016,7.0,13874.929999999997,9-17-5-2
34,9,17,5,3,10,0.22835820895522388,-0.12858035330122977,4.0,11997.260000000004,9-17-5-3
35,9,17,5,4,5,0.15522388059701492,-0.022144419145448603,inf,11440.09,9-17-5-4
36,9,17,7,1,18,0.3358208955223881,-0.12701250456322052,17.0,14000.550000000005,9-17-7-1
37,9,17,7,2,15,0.31791044776119404,-0.1241938730910343,14.0,14103.699999999997,9-17-7-2
38,9,17,7,3,12,0.2671641791044776,-0.1283538118199184,11.0,12664.190000000002,9-17-7-3
39,9,17,7,4,9,0.2791044776119403,-0.16541311531844607,8.0,11681.61,9-17-7-4
40,9,17,9,1,15,0.32686567164179103,-0.15042727698670436,14.0,13026.559999999996,9-17-9-1
41,9,17,9,2,14,0.3238805970149254,-0.1290387355255735,13.0,13438.17,9-17-9-2
42,9,17,9,3,12,0.24776119402985075,-0.09290149943242668,11.0,13014.390000000001,9-17-9-3
43,9,17,9,4,8,0.191044776119403,-0.09733825478705965,7.0,11991.349999999999,9-17-9-4
44,9,17,11,1,13,0.3164179104477612,-0.1263874154533332,12.0,12018.669999999998,9-17-11-1
45,9,17,11,2,12,0.3,-0.10384082532435299,inf,12965.090000000002,9-17-11-2
46,9,17,11,3,11,0.24925373134328357,-0.06814499754021731,10.0,12994.289999999997,9-17-11-3
47,9,17,11,4,7,0.19552238805970149,-0.09795244881122032,6.0,11723.999999999998,9-17-11-4
48,9,19,3,1,19,0.34328358208955223,-0.18530884516486718,2.8,11923.580000000004,9-19-3-1
49,9,19,3,2,14,0.3253731343283582,-0.15068784356680662,6.0,13104.570000000002,9-19-3-2
50,9,19,3,3,9,0.21343283582089553,-0.11679287216369709,8.0,11738.929999999998,9-19-3-3
51,9,19,3,4,6,0.31791044776119404,-0.17202423654189725,2.0,11230.559999999994,9-19-3-4
52,9,19,5,1,17,0.3373134328358209,-0.169849334049007,4.666666666666667,12519.63,9-19-5-1
53,9,19,5,2,15,0.30597014925373134,-0.1514393060740732,6.5,13337.79,9-19-5-2
54,9,19,5,3,9,0.20298507462686566,-0.13067014669276697,3.5,11671.199999999995,9-19-5-3
55,9,19,5,4,7,0.2701492537313433,-0.16674507799841348,6.0,11312.909999999994,9-19-5-4
56,9,19,7,1,17,0.3253731343283582,-0.12436095957309956,16.0,13733.029999999999,9-19-7-1
57,9,19,7,2,14,0.30149253731343284,-0.09488833653771726,13.0,13835.470000000003,9-19-7-2
58,9,19,7,3,12,0.25223880597014925,-0.09224934547198245,11.0,12579.459999999997,9-19-7-3
59,9,19,7,4,9,0.22835820895522388,-0.09326519421917709,8.0,12499.249999999993,9-19-7-4
60,9,19,9,1,14,0.31343283582089554,-0.1270560203122913,13.0,11982.609999999997,9-19-9-1
61,9,19,9,2,12,0.28059701492537314,-0.08194963786424117,inf,13208.780000000002,9-19-9-2
62,9,19,9,3,12,0.26119402985074625,-0.06792420076163293,11.0,13755.469999999994,9-19-9-3
63,9,19,9,4,8,0.23134328358208955,-0.09808753856759231,7.0,12368.209999999997,9-19-9-4
64,9,19,11,1,14,0.30597014925373134,-0.0780259804984118,13.0,12878.02,9-19-11-1
65,9,19,11,2,12,0.29701492537313434,-0.07802202096339829,inf,13519.590000000002,9-19-11-2
66,9,19,11,3,11,0.25970149253731345,-0.06530782247882118,10.0,12976.719999999996,9-19-11-3
67,9,19,11,4,9,0.2701492537313433,-0.06964091984752868,8.0,12301.859999999997,9-19-11-4
68,11,12,3,1,23,0.3597014925373134,-0.18372723006697692,2.8333333333333335,11790.58999999999,11-12-3-1
69,11,12,3,2,16,0.3328358208955224,-0.07299578160069378,3.0,13657.469999999992,11-12-3-2
70,11,12,3,3,5,0.24925373134328357,-0.16543201514882142,1.5,9797.330000000004,11-12-3-3
71,11,12,3,4,0,0.0,0.0,inf,10000.0,11-12-3-4
72,11,12,5,1,21,0.34328358208955223,-0.13685456325465034,2.5,12564.75,11-12-5-1
73,11,12,5,2,17,0.3447761194029851,-0.18987926421347565,2.4,10710.210000000003,11-12-5-2
74,11,12,5,3,9,0.24925373134328357,-0.17853652514736612,2.0,10870.439999999999,11-12-5-3
75,11,12,5,4,4,0.208955223880597,-0.13054162998656366,3.0,10956.91,11-12-5-4
76,11,12,7,1,18,0.33432835820895523,-0.13656071176323523,2.6,12560.299999999994,11-12-7-1
77,11,12,7,2,16,0.3746268656716418,-0.15382864031632215,4.333333333333333,12443.230000000003,11-12-7-2
0,11,12,7,3,10,0.30597014925373134,-0.14928402220415102,4.0,11553.740000000002,11-12-7-3
1,11,12,7,4,5,0.21940298507462686,-0.1285363109870422,4.0,11408.87,11-12-7-4
2,11,12,9,1,18,0.3238805970149254,-0.13634995716135825,3.5,12770.639999999998,11-12-9-1
3,11,12,9,2,16,0.34626865671641793,-0.1536340287405771,4.333333333333333,12536.860000000008,11-12-9-2
4,11,12,9,3,13,0.33432835820895523,-0.15022117111198713,5.5,12395.889999999996,11-12-9-3
5,11,12,9,4,6,0.21492537313432836,-0.1284802870863425,5.0,11178.970000000001,11-12-9-4
6,11,12,11,1,15,0.30597014925373134,-0.15049649251662867,6.5,12568.299999999996,11-12-11-1
7,11,12,11,2,14,0.3074626865671642,-0.12917252845632438,13.0,13222.760000000002,11-12-11-2
8,11,12,11,3,12,0.33880597014925373,-0.08769127728721558,11.0,13339.839999999998,11-12-11-3
9,11,12,11,4,5,0.17761194029850746,-0.11796653845068704,4.0,10797.76,11-12-11-4
10,11,14,3,1,22,0.3611940298507463,-0.15462613243179005,2.142857142857143,11850.35,11-14-3-1
11,11,14,3,2,17,0.3492537313432836,-0.12728936840437124,4.666666666666667,14166.409999999996,11-14-3-2
12,11,14,3,3,10,0.3044776119402985,-0.15549272144804493,4.0,11570.630000000001,11-14-3-3
13,11,14,3,4,5,0.28059701492537314,-0.13068345156318026,4.0,11718.960000000001,11-14-3-4
14,11,14,5,1,19,0.3492537313432836,-0.13567700142483205,2.1666666666666665,11798.009999999998,11-14-5-1
15,11,14,5,2,17,0.35074626865671643,-0.15392253854693289,16.0,14379.390000000005,11-14-5-2
16,11,14,5,3,11,0.2462686567164179,-0.09950168173797984,4.5,12211.330000000005,11-14-5-3
17,11,14,5,4,7,0.3835820895522388,-0.13118286672005702,6.0,12774.549999999997,11-14-5-4
18,11,14,7,1,18,0.34328358208955223,-0.12741047754502235,5.0,12919.559999999994,11-14-7-1
19,11,14,7,2,16,0.3402985074626866,-0.12860026890565143,4.333333333333333,12583.710000000001,11-14-7-2
20,11,14,7,3,12,0.3358208955223881,-0.1281185078581342,5.0,12826.91,11-14-7-3
21,11,14,7,4,8,0.2582089552238806,-0.12174866719005921,7.0,11878.379999999996,11-14-7-4
22,11,14,9,1,16,0.32238805970149254,-0.15156683010019198,7.0,13026.66,11-14-9-1
23,11,14,9,2,14,0.3253731343283582,-0.12881064325933222,6.0,13510.070000000007,11-14-9-2
24,11,14,9,3,13,0.3597014925373134,-0.11600587980231537,12.0,13523.350000000004,11-14-9-3
25,11,14,9,4,8,0.2656716417910448,-0.10255231626441427,7.0,12347.489999999994,11-14-9-4
26,11,14,11,1,13,0.27761194029850744,-0.12715256636564443,12.0,12875.879999999996,11-14-11-1
27,11,14,11,2,12,0.2791044776119403,-0.10361170316476068,inf,13351.69,11-14-11-2
28,11,14,11,3,11,0.2582089552238806,-0.09636305743751232,4.5,12539.44,11-14-11-3
29,11,14,11,4,6,0.24477611940298508,-0.09132163381689382,5.0,12156.649999999996,11-14-11-4
30,11,16,3,1,20,0.3164179104477612,-0.14434873176144591,4.0,12530.139999999992,11-16-3-1
31,11,16,3,2,14,0.3283582089552239,-0.16662103956782023,6.0,14070.720000000003,11-16-3-2
32,11,16,3,3,9,0.2373134328358209,-0.16514189388236067,2.0,11675.560000000001,11-16-3-3
33,11,16,3,4,3,0.07462686567164178,-0.06402946159114858,inf,10493.389999999998,11-16-3-4
34,11,16,5,1,17,0.33134328358208953,-0.12445341713508738,7.5,12855.119999999988,11-16-5-1
35,11,16,5,2,15,0.31044776119402984,-0.10163708747838725,14.0,14085.230000000007,11-16-5-2
36,11,16,5,3,10,0.24477611940298508,-0.12270547791020012,4.0,12531.49,11-16-5-3
37,11,16,5,4,6,0.14477611940298507,-0.06338474971671162,inf,11590.849999999997,11-16-5-4
38,11,16,7,1,16,0.33134328358208953,-0.1245059627508778,15.0,13254.329999999998,11-16-7-1
39,11,16,7,2,15,0.3358208955223881,-0.10196982370142717,6.5,13892.100000000004,11-16-7-2
40,11,16,7,3,15,0.34626865671641793,-0.14091910177726258,4.0,12958.630000000003,11-16-7-3
41,11,16,7,4,8,0.2626865671641791,-0.10296245207102331,3.0,12055.059999999996,11-16-7-4
42,11,16,9,1,16,0.3283582089552239,-0.15065332548557983,7.0,13120.36,11-16-9-1
43,11,16,9,2,15,0.34328358208955223,-0.12911532362483086,14.0,13329.480000000003,11-16-9-2
44,11,16,9,3,15,0.3328358208955224,-0.1227919125151563,6.5,13377.069999999996,11-16-9-3
45,11,16,9,4,9,0.27611940298507465,-0.10240915599885887,3.5,12293.539999999995,11-16-9-4
46,11,16,11,1,13,0.29701492537313434,-0.10291732029720436,inf,13928.410000000005,11-16-11-1
47,11,16,11,2,13,0.30149253731343284,-0.09615422016013594,12.0,13218.5,11-16-11-2
48,11,16,11,3,11,0.28955223880597014,-0.07805173791041112,inf,13636.609999999999,11-16-11-3
49,11,16,11,4,8,0.27611940298507465,-0.10381798511984669,3.0,11617.189999999997,11-16-11-4
50,11,19,3,1,21,0.35074626865671643,-0.12785439822060057,3.2,12923.409999999996,11-19-3-1
51,11,19,3,2,15,0.33880597014925373,-0.10161127242064792,14.0,14562.059999999998,11-19-3-2
52,11,19,3,3,11,0.2865671641791045,-0.12676447447586434,2.6666666666666665,11800.999999999996,11-19-3-3
53,11,19,3,4,5,0.3074626865671642,-0.09768448682717006,4.0,11533.589999999998,11-19-3-4
54,11,19,5,1,18,0.3253731343283582,-0.1250147224742529,17.0,13167.629999999996,11-19-5-1
55,11,19,5,2,15,0.3283582089552239,-0.1022060592600819,14.0,14143.010000000004,11-19-5-2
56,11,19,5,3,12,0.282089552238806,-0.14034874341724632,5.0,11837.509999999998,11-19-5-3
57,11,19,5,4,6,0.21641791044776118,-0.11968435487535585,5.0,11232.48,11-19-5-4
58,11,19,7,1,15,0.32238805970149254,-0.10387985190333639,14.0,12987.969999999992,11-19-7-1
59,11,19,7,2,13,0.31343283582089554,-0.09737168089391517,inf,13218.140000000001,11-19-7-2
60,11,19,7,3,12,0.26865671641791045,-0.08719742115810561,5.0,13297.929999999998,11-19-7-3
61,11,19,7,4,5,0.21044776119402986,-0.12021789711841623,4.0,10978.699999999997,11-19-7-4
62,11,19,9,1,14,0.3283582089552239,-0.09639442464345863,inf,13755.830000000005,11-19-9-1
63,11,19,9,2,13,0.3164179104477612,-0.0775220881098239,inf,13767.899999999998,11-19-9-2
64,11,19,9,3,12,0.27761194029850744,-0.07808979751267707,5.0,12476.419999999998,11-19-9-3
65,11,19,9,4,9,0.23582089552238805,-0.06406876104027398,3.5,12555.780000000002,11-19-9-4
66,11,19,11,1,13,0.32686567164179103,-0.0775857114991287,12.0,13754.779999999997,11-19-11-1
67,11,19,11,2,13,0.3253731343283582,-0.07816983446792276,5.5,13143.209999999997,11-19-11-2
68,11,19,11,3,11,0.282089552238806,-0.06413269610226212,inf,12615.349999999999,11-19-11-3
69,11,19,11,4,10,0.3119402985074627,-0.06353229785116155,9.0,12894.8,11-19-11-4
70,11,21,3,1,20,0.34776119402985073,-0.17068993787461972,3.0,11813.269999999997,11-21-3-1
71,11,21,3,2,14,0.30597014925373134,-0.08551384717666242,13.0,13536.560000000005,11-21-3-2
72,11,21,3,3,7,0.24029850746268658,-0.17075344625518826,2.5,10568.879999999996,11-21-3-3
73,11,21,3,4,3,0.20149253731343283,-0.16476874937490188,2.0,10594.19,11-21-3-4
74,11,21,5,1,16,0.3373134328358209,-0.128512264054928,7.0,12212.979999999998,11-21-5-1
75,11,21,5,2,14,0.29850746268656714,-0.09020589831264096,13.0,13180.230000000005,11-21-5-2
76,11,21,5,3,10,0.22388059701492538,-0.13201761507702128,4.0,11030.73,11-21-5-3
77,11,21,5,4,6,0.1626865671641791,-0.08763521018241485,inf,11673.450000000003,11-21-5-4
0,11,21,7,1,14,0.3029850746268657,-0.07980721787848734,13.0,12839.839999999997,11-21-7-1
1,11,21,7,2,12,0.291044776119403,-0.0819879332511918,inf,13397.140000000003,11-21-7-2
2,11,21,7,3,11,0.2582089552238806,-0.07775145573263649,4.5,12210.129999999997,11-21-7-3
3,11,21,7,4,5,0.21044776119402986,-0.11999695834489994,4.0,11136.189999999997,11-21-7-4
4,11,21,9,1,13,0.3238805970149254,-0.07842053212911218,inf,14080.689999999997,11-21-9-1
5,11,21,9,2,13,0.32686567164179103,-0.07744617748417075,inf,13454.559999999996,11-21-9-2
6,11,21,9,3,12,0.3,-0.06417370045238603,5.0,12576.199999999999,11-21-9-3
7,11,21,9,4,11,0.31343283582089554,-0.11178234632531743,1.75,11884.179999999991,11-21-9-4
8,11,21,11,1,12,0.3522388059701492,-0.16686544337143996,3.0,12106.440000000004,11-21-11-1
9,11,21,11,2,12,0.3567164179104478,-0.17086855338567689,2.0,11908.279999999997,11-21-11-2
10,11,21,11,3,10,0.31044776119402984,-0.16540646483079124,2.3333333333333335,11428.659999999998,11-21-11-3
11,11,21,11,4,8,0.3761194029850746,-0.1935676250937332,3.0,11071.569999999998,11-21-11-4
12,11,23,3,1,17,0.32686567164179103,-0.1741323378323225,4.666666666666667,11730.909999999998,11-23-3-1
13,11,23,3,2,11,0.2791044776119403,-0.07627855438836745,10.0,12804.860000000002,11-23-3-2
14,11,23,3,3,8,0.21343283582089553,-0.10850272943200327,3.0,10954.799999999997,11-23-3-3
15,11,23,3,4,2,0.10746268656716418,-0.16539739832402137,1.0,9556.67,11-23-3-4
16,11,23,5,1,15,0.3283582089552239,-0.10445729594383471,6.5,11943.799999999996,11-23-5-1
17,11,23,5,2,12,0.29253731343283584,-0.0817336099334519,5.0,12465.07,11-23-5-2
18,11,23,5,3,10,0.24328358208955222,-0.08661400462859714,2.3333333333333335,11799.72,11-23-5-3
19,11,23,5,4,7,0.23283582089552238,-0.11914597105267234,6.0,11306.07,11-23-5-4
20,11,23,7,1,13,0.3164179104477612,-0.07940421329537597,5.5,12863.61,11-23-7-1
21,11,23,7,2,12,0.3119402985074627,-0.07786674972637864,11.0,12972.859999999999,11-23-7-2
22,11,23,7,3,11,0.27761194029850744,-0.09830261320133439,1.75,11914.050000000001,11-23-7-3
23,11,23,7,4,8,0.31343283582089554,-0.09896427236027705,7.0,12223.68,11-23-7-4
24,11,23,9,1,12,0.3537313432835821,-0.16717701146241915,5.0,12350.330000000005,11-23-9-1
25,11,23,9,2,12,0.3522388059701492,-0.16541673949081365,5.0,12158.389999999998,11-23-9-2
26,11,23,9,3,11,0.3238805970149254,-0.18644926836991563,1.75,11072.71,11-23-9-3
27,11,23,9,4,9,0.34626865671641793,-0.18687630289536414,3.5,11216.509999999997,11-23-9-4
28,11,23,11,1,11,0.36268656716417913,-0.196043307628569,2.6666666666666665,11300.630000000003,11-23-11-1
29,11,23,11,2,11,0.3522388059701492,-0.21552063090129586,1.75,10412.9,11-23-11-2
30,11,23,11,3,11,0.3402985074626866,-0.2010454988034076,1.75,10727.529999999997,11-23-11-3
31,11,23,11,4,7,0.3597014925373134,-0.19354993435382734,2.5,10870.95,11-23-11-4
32,13,14,3,1,20,0.3238805970149254,-0.15452258366994273,1.8571428571428572,11594.129999999994,13-14-3-1
33,13,14,3,2,16,0.31791044776119404,-0.07102556194553786,15.0,15416.070000000003,13-14-3-2
34,13,14,3,3,5,0.31492537313432833,-0.16728039334568356,4.0,11303.990000000007,13-14-3-3
35,13,14,3,4,3,0.2791044776119403,-0.10024714096431955,2.0,10073.139999999998,13-14-3-4
36,13,14,5,1,19,0.3358208955223881,-0.1270677016024039,3.75,13482.619999999999,13-14-5-1
37,13,14,5,2,15,0.30149253731343284,-0.10258907118940644,6.5,12680.35,13-14-5-2
38,13,14,5,3,8,0.29402985074626864,-0.08095863132112327,7.0,12824.470000000003,13-14-5-3
39,13,14,5,4,5,0.24328358208955222,-0.09089936387750958,1.5,11209.199999999997,13-14-5-4
40,13,14,7,1,19,0.35522388059701493,-0.1265467087579122,5.333333333333333,13450.140000000005,13-14-7-1
41,13,14,7,2,15,0.32686567164179103,-0.10259186784365411,14.0,13021.610000000004,13-14-7-2
42,13,14,7,3,10,0.3044776119402985,-0.07790471984286551,inf,13122.869999999995,13-14-7-3
43,13,14,7,4,5,0.3208955223880597,-0.09071821413358576,4.0,12521.959999999997,13-14-7-4
44,13,14,9,1,17,0.3582089552238806,-0.12704115985557102,16.0,13760.950000000004,13-14-9-1
45,13,14,9,2,14,0.3208955223880597,-0.10384445795447725,inf,12836.340000000006,13-14-9-2
46,13,14,9,3,10,0.282089552238806,-0.0780227345288138,inf,12475.42,13-14-9-3
47,13,14,9,4,5,0.2253731343283582,-0.06378083786479666,inf,12881.25,13-14-9-4
48,13,14,11,1,15,0.3328358208955224,-0.12545552425010553,14.0,13169.030000000004,13-14-11-1
49,13,14,11,2,13,0.3253731343283582,-0.1214823010304089,3.3333333333333335,11547.7,13-14-11-2
50,13,14,11,3,12,0.3194029850746269,-0.1454174555119482,2.0,11458.519999999993,13-14-11-3
51,13,14,11,4,8,0.2955223880597015,-0.09936342668126015,3.0,12406.819999999998,13-14-11-4
52,13,17,3,1,21,0.3641791044776119,-0.15094268025589103,2.5,12896.529999999999,13-17-3-1
53,13,17,3,2,13,0.36268656716417913,-0.1670350822276173,inf,12924.060000000001,13-17-3-2
54,13,17,3,3,7,0.29701492537313434,-0.16510328136619573,6.0,11904.72,13-17-3-3
55,13,17,3,4,5,0.2537313432835821,-0.16526536349892584,4.0,12203.920000000002,13-17-3-4
56,13,17,5,1,19,0.3805970149253731,-0.1513014435838987,8.5,13058.630000000001,13-17-5-1
57,13,17,5,2,17,0.3611940298507463,-0.1290035889750676,16.0,14162.900000000007,13-17-5-2
58,13,17,5,3,12,0.26865671641791045,-0.12227839764450643,11.0,13042.52,13-17-5-3
59,13,17,5,4,8,0.23880597014925373,-0.06377943794558295,inf,12881.52,13-17-5-4
60,13,17,7,1,15,0.34626865671641793,-0.10397184070895922,inf,13840.820000000007,13-17-7-1
61,13,17,7,2,14,0.3447761194029851,-0.09777938771077961,inf,14035.45,13-17-7-2
62,13,17,7,3,13,0.3567164179104478,-0.07776167927061962,inf,14287.76,13-17-7-3
63,13,17,7,4,8,0.3492537313432836,-0.06398202467824055,7.0,13474.979999999998,13-17-7-4
64,13,17,9,1,13,0.3119402985074627,-0.09664602249016883,12.0,13150.789999999999,13-17-9-1
65,13,17,9,2,13,0.31791044776119404,-0.07753969402236564,12.0,13950.089999999991,13-17-9-2
66,13,17,9,3,12,0.31492537313432833,-0.06481302616574366,11.0,14095.439999999997,13-17-9-3
67,13,17,9,4,9,0.2791044776119403,-0.0654456842329379,inf,13155.229999999998,13-17-9-4
68,13,17,11,1,13,0.3238805970149254,-0.0777622611531545,3.3333333333333335,13423.190000000004,13-17-11-1
69,13,17,11,2,13,0.33880597014925373,-0.12508545043688138,3.3333333333333335,12407.75,13-17-11-2
70,13,17,11,3,13,0.3373134328358209,-0.12371701172280203,3.3333333333333335,12277.380000000003,13-17-11-3
71,13,17,11,4,9,0.35522388059701493,-0.10828398847191471,3.5,11827.999999999998,13-17-11-4
72,13,20,3,1,19,0.34626865671641793,-0.1510652215737831,5.333333333333333,12782.940000000004,13-20-3-1
73,13,20,3,2,14,0.3328358208955224,-0.08528561287553992,13.0,13865.180000000008,13-20-3-2
74,13,20,3,3,6,0.1626865671641791,-0.08715763094082503,inf,11365.300000000001,13-20-3-3
75,13,20,3,4,2,0.11791044776119403,-0.09075427032199625,1.0,10396.339999999998,13-20-3-4
76,13,20,5,1,16,0.35074626865671643,-0.09739104123104614,7.0,12905.83,13-20-5-1
77,13,20,5,2,14,0.33432835820895523,-0.07838285517308007,6.0,13542.389999999998,13-20-5-2
0,13,20,5,3,11,0.30597014925373134,-0.07040190920431738,10.0,13492.28,13-20-5-3
1,13,20,5,4,7,0.282089552238806,-0.06422800668127593,6.0,12652.18,13-20-5-4
2,13,20,7,1,14,0.3328358208955224,-0.07757595172191703,13.0,13222.05,13-20-7-1
3,13,20,7,2,13,0.32686567164179103,-0.07736725284555214,3.3333333333333335,13593.05,13-20-7-2
4,13,20,7,3,11,0.3,-0.06401745176999855,10.0,13259.219999999996,13-20-7-3
5,13,20,7,4,10,0.29850746268656714,-0.06528789793354116,4.0,13071.679999999998,13-20-7-4
6,13,20,9,1,13,0.32985074626865674,-0.07103840939285627,5.5,13322.279999999999,13-20-9-1
7,13,20,9,2,13,0.32985074626865674,-0.07285087426132864,3.3333333333333335,12603.980000000001,13-20-9-2
8,13,20,9,3,12,0.32238805970149254,-0.06716384770122275,3.0,12786.529999999995,13-20-9-3
9,13,20,9,4,10,0.3029850746268657,-0.06543795702050582,4.0,12813.019999999999,13-20-9-4
10,13,20,11,1,12,0.3582089552238806,-0.16479601714838893,2.0,11562.840000000002,13-20-11-1
11,13,20,11,2,12,0.3567164179104478,-0.17325423642162843,2.0,11243.380000000001,13-20-11-2
12,13,20,11,3,11,0.35074626865671643,-0.16550581180316953,2.6666666666666665,11688.68,13-20-11-3
13,13,20,11,4,9,0.3358208955223881,-0.16584630829454233,3.5,11741.329999999996,13-20-11-4
14,13,22,3,1,16,0.3567164179104478,-0.14958191738652982,3.0,11948.609999999997,13-22-3-1
15,13,22,3,2,14,0.31492537313432833,-0.07806078815392523,13.0,13102.54,13-22-3-2
16,13,22,3,3,6,0.2656716417910448,-0.1666071954377465,5.0,10684.700000000003,13-22-3-3
17,13,22,3,4,2,0.10597014925373134,-0.029810183308800343,inf,10302.69,13-22-3-4
18,13,22,5,1,15,0.3328358208955224,-0.07911502015312578,6.5,13177.810000000001,13-22-5-1
19,13,22,5,2,13,0.31791044776119404,-0.07754330506845493,3.3333333333333335,12525.160000000002,13-22-5-2
20,13,22,5,3,11,0.2746268656716418,-0.06988231810452729,10.0,12120.160000000002,13-22-5-3
21,13,22,5,4,9,0.30149253731343284,-0.06592048590705861,8.0,12778.980000000001,13-22-5-4
22,13,22,7,1,13,0.3253731343283582,-0.07766221192072391,5.5,13108.33,13-22-7-1
23,13,22,7,2,13,0.32985074626865674,-0.08554755760532207,3.3333333333333335,12203.339999999998,13-22-7-2
24,13,22,7,3,11,0.29701492537313434,-0.08093393103750636,4.5,12835.439999999997,13-22-7-3
25,13,22,7,4,10,0.3,-0.06532024196510806,4.0,12632.860000000002,13-22-7-4
26,13,22,9,1,12,0.3597014925373134,-0.16613340504467328,3.0,11685.540000000005,13-22-9-1
27,13,22,9,2,12,0.3597014925373134,-0.1840773599606917,2.0,11232.389999999996,13-22-9-2
28,13,22,9,3,12,0.35522388059701493,-0.165369479667687,2.0,11657.66,13-22-9-3
29,13,22,9,4,9,0.32686567164179103,-0.16560228257184836,3.5,11790.249999999998,13-22-9-4
30,13,22,11,1,11,0.35522388059701493,-0.19697926553598888,1.75,10788.64,13-22-11-1
31,13,22,11,2,11,0.3537313432835821,-0.21796210581326336,1.75,10266.720000000001,13-22-11-2
32,13,22,11,3,10,0.33134328358208953,-0.19420746243623171,2.3333333333333335,10805.599999999997,13-22-11-3
33,13,22,11,4,8,0.3447761194029851,-0.1997894424398707,1.6666666666666667,11113.859999999997,13-22-11-4
34,13,25,3,1,15,0.3597014925373134,-0.18900175283883686,2.0,11382.870000000003,13-25-3-1
35,13,25,3,2,12,0.32985074626865674,-0.21478082265136653,3.0,10934.140000000003,13-25-3-2
36,13,25,3,3,7,0.26417910447761195,-0.1996558228186451,2.5,9948.53,13-25-3-3
37,13,25,3,4,3,0.14925373134328357,-0.09075427032199625,2.0,10449.96,13-25-3-4
38,13,25,5,1,14,0.3567164179104478,-0.17376192088032835,2.5,11291.3,13-25-5-1
39,13,25,5,2,12,0.36268656716417913,-0.19918223033995852,3.0,11113.649999999998,13-25-5-2
40,13,25,5,3,10,0.3164179104477612,-0.2237269854629068,2.3333333333333335,10211.330000000002,13-25-5-3
41,13,25,5,4,8,0.33432835820895523,-0.18601734000848047,3.0,11212.359999999999,13-25-5-4
42,13,25,7,1,11,0.33432835820895523,-0.16485634307188254,2.6666666666666665,11583.710000000005,13-25-7-1
43,13,25,7,2,11,0.35074626865671643,-0.20732684819366295,1.75,10579.849999999999,13-25-7-2
44,13,25,7,3,9,0.3119402985074627,-0.19028289193659445,2.0,10779.469999999996,13-25-7-3
45,13,25,7,4,8,0.3119402985074627,-0.19296669930320356,1.6666666666666667,10617.369999999999,13-25-7-4
46,13,25,9,1,11,0.3567164179104478,-0.19507861873330948,2.6666666666666665,10801.16,13-25-9-1
47,13,25,9,2,11,0.3522388059701492,-0.21743193181204978,1.75,10143.819999999998,13-25-9-2
48,13,25,9,3,10,0.3328358208955224,-0.19420746243623171,2.3333333333333335,10779.099999999997,13-25-9-3
49,13,25,9,4,7,0.36716417910447763,-0.19392444367456865,2.5,11087.789999999997,13-25-9-4
50,13,25,11,1,10,0.36268656716417913,-0.20013969706330073,4.0,10955.62,13-25-11-1
51,13,25,11,2,10,0.3597014925373134,-0.22323238809941023,2.3333333333333335,10713.849999999999,13-25-11-2
52,13,25,11,3,10,0.3582089552238806,-0.18643838100240578,4.0,11293.469999999998,13-25-11-3
53,13,25,11,4,8,0.3417910447761194,-0.20634019054783678,1.6666666666666667,10678.24,13-25-11-4
54,13,27,3,1,14,0.3358208955223881,-0.20440029326481698,1.8,10832.089999999997,13-27-3-1
55,13,27,3,2,10,0.29850746268656714,-0.21475587636669097,2.3333333333333335,10514.16,13-27-3-2
56,13,27,3,3,6,0.3074626865671642,-0.19764538126455988,2.0,10216.010000000002,13-27-3-3
57,13,27,3,4,3,0.14925373134328357,-0.09075427032199625,2.0,10449.96,13-27-3-4
58,13,27,5,1,13,0.33880597014925373,-0.17255185616134205,2.25,11136.749999999998,13-27-5-1
59,13,27,5,2,10,0.3029850746268657,-0.19697119466259233,2.3333333333333335,10603.779999999999,13-27-5-2
60,13,27,5,3,9,0.29701492537313434,-0.20622056803512004,2.0,10310.380000000003,13-27-5-3
61,13,27,5,4,6,0.29850746268656714,-0.18601734000848047,2.0,10731.98,13-27-5-4
62,13,27,7,1,12,0.34328358208955223,-0.19476549485651493,2.0,10384.169999999996,13-27-7-1
63,13,27,7,2,11,0.3358208955223881,-0.20678615639273232,1.75,10230.56,13-27-7-2
64,13,27,7,3,9,0.3119402985074627,-0.18974013249043753,2.0,10736.789999999997,13-27-7-3
65,13,27,7,4,7,0.36268656716417913,-0.19354993435382734,2.5,10729.99,13-27-7-4
66,13,27,9,1,10,0.3597014925373134,-0.1950355755746699,4.0,11058.530000000002,13-27-9-1
67,13,27,9,2,10,0.3567164179104478,-0.20817175608243152,4.0,10888.93,13-27-9-2
68,13,27,9,3,10,0.3522388059701492,-0.1930717433509606,2.3333333333333335,11160.05,13-27-9-3
69,13,27,9,4,8,0.3373134328358209,-0.20090862914448768,3.0,10780.519999999997,13-27-9-4
70,13,27,11,1,10,0.3686567164179104,-0.19990145832469958,4.0,10949.300000000001,13-27-11-1
71,13,27,11,2,10,0.3656716417910448,-0.22275269789253635,2.3333333333333335,10705.9,13-27-11-2
72,13,27,11,3,10,0.3641791044776119,-0.18718202479185392,4.0,11292.249999999998,13-27-11-3
73,13,27,11,4,7,0.3716417910447761,-0.19427662091879208,2.5,11056.149999999998,13-27-11-4
