,fast,slow,sig,delay,numSell,exposure,drawdown,winLoss,value,zzz
0,3,3,3,1,0,0.0,0.0,inf,10000.0,3-3-3-1
1,3,3,3,2,0,0.0,0.0,inf,10000.0,3-3-3-2
2,3,3,3,3,0,0.0,0.0,inf,10000.0,3-3-3-3
3,3,3,3,4,0,0.0,0.0,inf,10000.0,3-3-3-4
4,3,3,5,1,0,0.0,0.0,inf,10000.0,3-3-5-1
5,3,3,5,2,0,0.0,0.0,inf,10000.0,3-3-5-2
6,3,3,5,3,0,0.0,0.0,inf,10000.0,3-3-5-3
7,3,3,5,4,0,0.0,0.0,inf,10000.0,3-3-5-4
8,3,3,7,1,0,0.0,0.0,inf,10000.0,3-3-7-1
9,3,3,7,2,0,0.0,0.0,inf,10000.0,3-3-7-2
10,3,3,7,3,0,0.0,0.0,inf,10000.0,3-3-7-3
11,3,3,7,4,0,0.0,0.0,inf,10000.0,3-3-7-4
12,3,3,9,1,0,0.0,0.0,inf,10000.0,3-3-9-1
13,3,3,9,2,0,0.0,0.0,inf,10000.0,3-3-9-2
14,3,3,9,3,0,0.0,0.0,inf,10000.0,3-3-9-3
15,3,3,9,4,0,0.0,0.0,inf,10000.0,3-3-9-4
16,3,3,11,1,0,0.0,0.0,inf,10000.0,3-3-11-1
17,3,3,11,2,0,0.0,0.0,inf,10000.0,3-3-11-2
18,3,3,11,3,0,0.0,0.0,inf,10000.0,3-3-11-3
19,3,3,11,4,0,0.0,0.0,inf,10000.0,3-3-11-4
20,3,4,3,1,92,0.5283528352835284,-0.17525709112038945,1.875,10645.240000000002,3-4-3-1
21,3,4,3,2,21,0.44374437443744374,-0.24811315469716785,1.3333333333333333,9262.199999999997,3-4-3-2
22,3,4,3,3,6,0.22052205220522053,-0.07547484287648878,2.0,11494.489999999996,3-4-3-3
23,3,4,3,4,1,0.15031503150315031,-0.13556008388876664,0.0,9642.33,3-4-3-4
24,3,4,5,1,67,0.5211521152115212,-0.144060164040014,2.35,12026.159999999985,3-4-5-1
25,3,4,5,2,26,0.5688568856885688,-0.1721617616072677,2.25,11412.139999999998,3-4-5-2
26,3,4,5,3,9,0.5526552655265526,-0.14166662720828788,2.0,11117.760000000002,3-4-5-3
27,3,4,5,4,6,0.5562556255625563,-0.1413512877254106,1.0,12604.950000000003,3-4-5-4
28,3,4,7,1,56,0.48874887488748875,-0.13545257401470875,2.5,12466.315,3-4-7-1
29,3,4,7,2,22,0.47254725472547254,-0.1545827752193529,2.6666666666666665,10393.96,3-4-7-2
30,3,4,7,3,8,0.36993699369936994,-0.15955849578905412,1.6666666666666667,11040.549999999997,3-4-7-3
31,3,4,7,4,3,0.21152115211521152,-0.19105422586917467,0.5,9317.53,3-4-7-4
32,3,4,9,1,53,0.5094509450945095,-0.14594630714274479,2.7857142857142856,12740.999999999995,3-4-9-1
33,3,4,9,2,20,0.41224122412241226,-0.1578956706009901,3.0,10469.980000000005,3-4-9-2
34,3,4,9,3,9,0.36003600360036003,-0.15718519561154512,2.0,10781.25,3-4-9-3
35,3,4,9,4,3,0.33753375337533753,-0.1356653239024177,2.0,10082.560000000001,3-4-9-4
36,3,4,11,1,43,0.5238523852385238,-0.17850936622036448,2.909090909090909,11081.289999999992,3-4-11-1
37,3,4,11,2,19,0.42124212421242124,-0.22288221345094728,3.75,9804.55,3-4-11-2
38,3,4,11,3,11,0.48514851485148514,-0.13524936601859686,2.6666666666666665,12460.17,3-4-11-3
39,3,4,11,4,2,0.2619261926192619,-0.13552129828749793,1.0,9645.410000000002,3-4-11-4
40,3,5,3,1,87,0.5346534653465347,-0.1348274020086059,2.0,11288.150000000003,3-5-3-1
41,3,5,3,2,25,0.47974797479747977,-0.27841530895016403,0.9230769230769231,8774.795,3-5-3-2
42,3,5,3,3,6,0.44194419441944194,-0.2369566998724058,0.5,9102.77,3-5-3-3
43,3,5,3,4,3,0.3258325832583258,-0.13847637152130615,0.5,10736.62,3-5-3-4
44,3,5,5,1,70,0.5229522952295229,-0.14447189997089296,1.9166666666666667,12173.97499999999,3-5-5-1
45,3,5,5,2,31,0.504950495049505,-0.15983460479624428,1.8181818181818181,10375.174999999996,3-5-5-2
46,3,5,5,3,8,0.41224122412241226,-0.25246110569602814,1.6666666666666667,9860.78,3-5-5-3
47,3,5,5,4,1,0.37623762376237624,-0.07524000000000014,inf,13563.069999999998,3-5-5-4
48,3,5,7,1,52,0.5094509450945095,-0.13977639514737883,2.0588235294117645,12660.674999999996,3-5-7-1
49,3,5,7,2,25,0.48424842484248426,-0.12589747089678832,4.0,11310.110000000002,3-5-7-2
50,3,5,7,3,7,0.18991899189918993,-0.15046792684245885,2.5,10231.369999999999,3-5-7-3
51,3,5,7,4,2,0.49504950495049505,-0.16273254757808586,inf,13929.009999999997,3-5-7-4
52,3,5,9,1,47,0.5157515751575158,-0.1690816364447089,3.272727272727273,12097.590000000004,3-5-9-1
53,3,5,9,2,26,0.49684968496849685,-0.13363345732229287,4.2,11231.55,3-5-9-2
54,3,5,9,3,5,0.28622862286228623,-0.14233139761057767,4.0,11113.969999999998,3-5-9-3
55,3,5,9,4,3,0.25742574257425743,-0.06743162664777717,inf,12273.189999999995,3-5-9-4
56,3,5,11,1,41,0.5373537353735374,-0.1748436101220218,2.4166666666666665,11040.15679999999,3-5-11-1
57,3,5,11,2,22,0.47974797479747977,-0.17145000000000035,2.142857142857143,9908.839999999998,3-5-11-2
58,3,5,11,3,5,0.22142214221422143,-0.13678784680143644,1.5,10052.89,3-5-11-3
59,3,5,11,4,1,0.009000900090009001,-0.029196999999999935,inf,10266.75,3-5-11-4
60,3,6,3,1,81,0.558055805580558,-0.1399282855117402,2.1153846153846154,11285.769999999993,3-6-3-1
61,3,6,3,2,24,0.47794779477947796,-0.18090004352815486,2.4285714285714284,10100.099999999999,3-6-3-2
62,3,6,3,3,10,0.44284428442844287,-0.2099924227987136,2.3333333333333335,11012.49,3-6-3-3
63,3,6,3,4,2,0.32043204320432045,-0.1359815174334689,1.0,11245.63,3-6-3-4
64,3,6,5,1,66,0.5220522052205221,-0.14935669140042288,2.8823529411764706,12502.335000000003,3-6-5-1
65,3,6,5,2,34,0.49234923492349236,-0.15461023040576186,2.4,10880.955,3-6-5-2
66,3,6,5,3,9,0.38793879387938796,-0.16585572234157372,2.0,10767.824999999999,3-6-5-3
67,3,6,5,4,2,0.2376237623762376,-0.12083584448945323,1.0,11576.139999999996,3-6-5-4
68,3,6,7,1,51,0.5247524752475248,-0.1698974074077052,1.6842105263157894,11780.441799999997,3-6-7-1
69,3,6,7,2,35,0.45994599459945995,-0.1255144930697964,3.375,12231.724999999993,3-6-7-2
70,3,6,7,3,8,0.34923492349234925,-0.16545853937117633,1.6666666666666667,11606.589999999993,3-6-7-3
71,3,6,7,4,3,0.39873987398739874,-0.16285862473725873,2.0,11623.07,3-6-7-4
72,3,6,9,1,47,0.5175517551755175,-0.15855367083323094,2.357142857142857,11791.93500000001,3-6-9-1
73,3,6,9,2,31,0.5013501350135013,-0.1382786993264248,2.875,11286.270000000006,3-6-9-2
74,3,6,9,3,8,0.38073807380738073,-0.1549643615214032,3.0,10875.269999999999,3-6-9-3
75,3,6,9,4,2,0.34923492349234925,-0.16273254757808586,inf,11020.210000000001,3-6-9-4
76,3,6,11,1,40,0.5184518451845185,-0.16330890151058233,2.6363636363636362,11043.2418,3-6-11-1
77,3,6,11,2,25,0.47704770477047703,-0.20880703744776025,3.1666666666666665,10485.24,3-6-11-2
0,3,6,11,3,7,0.29432943294329433,-0.1502757336420208,6.0,10952.639999999996,3-6-11-3
1,3,6,11,4,2,0.12151215121512152,-0.07709901839321452,inf,11148.359999999999,3-6-11-4
2,5,6,3,1,75,0.5526552655265526,-0.1085814166719763,1.7777777777777777,11960.560000000007,5-6-3-1
3,5,6,3,2,39,0.6156615661566157,-0.1386136110119892,2.9,13971.645000000002,5-6-3-2
4,5,6,3,3,6,0.27542754275427545,-0.18440078850670097,2.0,10996.290000000003,5-6-3-3
5,5,6,3,4,0,0.0,0.0,inf,10000.0,5-6-3-4
6,5,6,5,1,66,0.5544554455445545,-0.14448460557552678,1.8695652173913044,13434.1768,5-6-5-1
7,5,6,5,2,47,0.5427542754275427,-0.12559675437417728,2.9166666666666665,14725.954999999993,5-6-5-2
8,5,6,5,3,15,0.5832583258325833,-0.12565013178638562,2.75,12539.104999999996,5-6-5-3
9,5,6,5,4,4,0.25472547254725475,-0.16874099999999997,1.0,10848.890000000001,5-6-5-4
10,5,6,7,1,50,0.5517551755175517,-0.1279819679800803,2.5714285714285716,12130.816800000011,5-6-7-1
11,5,6,7,2,36,0.5283528352835284,-0.13703185912084997,4.142857142857143,13346.029999999988,5-6-7-2
12,5,6,7,3,12,0.387038703870387,-0.07276086120570388,11.0,15269.580000000002,5-6-7-3
13,5,6,7,4,2,0.39783978397839787,-0.1625405318947843,inf,11645.250000000002,5-6-7-4
14,5,6,9,1,40,0.5265526552655265,-0.15466995868258607,2.3333333333333335,10873.411799999996,5-6-9-1
15,5,6,9,2,32,0.5229522952295229,-0.14663577723266988,5.4,12571.619999999997,5-6-9-2
16,5,6,9,3,13,0.36813681368136814,-0.16085885901406918,3.3333333333333335,11148.400000000003,5-6-9-3
17,5,6,9,4,6,0.4365436543654365,-0.11799237252224686,5.0,11861.160000000003,5-6-9-4
18,5,6,11,1,38,0.54005400540054,-0.1383384523422642,4.428571428571429,12447.096800000003,5-6-11-1
19,5,6,11,2,31,0.5211521152115212,-0.14814229905325904,5.2,12367.839999999995,5-6-11-2
20,5,6,11,3,15,0.387038703870387,-0.16357244066595833,2.75,11811.310000000001,5-6-11-3
21,5,6,11,4,6,0.5283528352835284,-0.20967748010734952,2.0,11173.820000000003,5-6-11-4
22,5,8,3,1,67,0.5382538253825383,-0.1629203459550223,1.7916666666666667,13373.581800000005,5-8-3-1
23,5,8,3,2,49,0.5166516651665166,-0.14179244209142255,2.0625,12139.745000000012,5-8-3-2
24,5,8,3,3,14,0.5067506750675067,-0.1926041989486269,2.5,11432.350000000002,5-8-3-3
25,5,8,3,4,2,0.27992799279927993,-0.07493960805768055,inf,11789.04,5-8-3-4
26,5,8,5,1,59,0.5463546354635463,-0.137508057935938,2.2777777777777777,13160.191800000002,5-8-5-1
27,5,8,5,2,49,0.5121512151215122,-0.1417177955480541,2.5,12895.380000000005,5-8-5-2
28,5,8,5,3,18,0.45184518451845185,-0.07990921703579648,3.5,17162.550000000003,5-8-5-3
29,5,8,5,4,5,0.5634563456345635,-0.0851506000601733,4.0,15277.359999999997,5-8-5-4
30,5,8,7,1,47,0.5427542754275427,-0.1455425390027104,2.357142857142857,11642.911800000003,5-8-7-1
31,5,8,7,2,40,0.5139513951395139,-0.13704652450844654,3.4444444444444446,13363.480000000003,5-8-7-2
32,5,8,7,3,16,0.38973897389738976,-0.1379979825424559,2.2,12291.63,5-8-7-3
33,5,8,7,4,6,0.46444644464446444,-0.09930528416222607,5.0,13232.210000000003,5-8-7-4
34,5,8,9,1,39,0.5157515751575158,-0.13891272856393005,2.5454545454545454,12053.381799999997,5-8-9-1
35,5,8,9,2,35,0.504950495049505,-0.15835546236747286,3.375,12741.019999999993,5-8-9-2
36,5,8,9,3,19,0.45814581458145814,-0.23235567871109833,3.75,10611.270000000004,5-8-9-3
37,5,8,9,4,4,0.2583258325832583,-0.1561959794825743,3.0,11309.000000000002,5-8-9-4
38,5,8,11,1,40,0.5247524752475248,-0.13753813155390335,3.4444444444444446,13306.161799999996,5-8-11-1
39,5,8,11,2,31,0.45544554455445546,-0.1586996482343428,3.4285714285714284,12598.930000000011,5-8-11-2
40,5,8,11,3,17,0.38073807380738073,-0.23160597417266632,2.4,10124.949999999997,5-8-11-3
41,5,8,11,4,5,0.18361836183618363,-0.07489731075904514,inf,11979.540000000005,5-8-11-4
42,5,10,3,1,59,0.558055805580558,-0.142863183514562,1.8095238095238095,12061.471799999992,5-10-3-1
43,5,10,3,2,38,0.5589558955895589,-0.2113295067803891,2.1666666666666665,10912.22999999999,5-10-3-2
44,5,10,3,3,16,0.47434743474347435,-0.20758589645395795,7.0,13173.689999999999,5-10-3-3
45,5,10,3,4,4,0.42934293429342935,-0.15727843498020525,inf,12418.32,5-10-3-4
46,5,10,5,1,54,0.5373537353735374,-0.14173029213852106,1.7,11055.81179999999,5-10-5-1
47,5,10,5,2,46,0.5184518451845185,-0.18765333902582382,2.2857142857142856,11846.340000000004,5-10-5-2
48,5,10,5,3,18,0.3789378937893789,-0.08680221518987347,8.0,15282.229999999994,5-10-5-3
49,5,10,5,4,4,0.3465346534653465,-0.09910571313524835,3.0,12307.940000000004,5-10-5-4
50,5,10,7,1,44,0.5256525652565257,-0.13928308981409215,2.142857142857143,12076.311799999998,5-10-7-1
51,5,10,7,2,41,0.5175517551755175,-0.13219913887075407,3.1,13456.360000000004,5-10-7-2
52,5,10,7,3,21,0.41944194419441944,-0.23279024647296964,3.2,10250.439999999995,5-10-7-3
53,5,10,7,4,5,0.29612961296129614,-0.15653324614470865,4.0,11853.630000000001,5-10-7-4
54,5,10,9,1,36,0.5148514851485149,-0.13849724258118107,3.5,13584.751799999998,5-10-9-1
55,5,10,9,2,34,0.48874887488748875,-0.12832099999999974,4.666666666666667,12967.650000000012,5-10-9-2
56,5,10,9,3,20,0.4221422142214221,-0.2438330542834446,4.0,11246.469999999994,5-10-9-3
57,5,10,9,4,8,0.25922592259225924,-0.12671072785269635,3.0,10633.810000000007,5-10-9-4
58,5,10,11,1,36,0.495949594959496,-0.12362014369499662,4.142857142857143,14412.255,5-10-11-1
59,5,10,11,2,32,0.4527452745274527,-0.12376909367804483,3.5714285714285716,12807.719999999992,5-10-11-2
60,5,10,11,3,21,0.3564356435643564,-0.23943723463011127,4.25,11150.675,5-10-11-3
61,5,10,11,4,9,0.2556255625562556,-0.16729885084350998,3.5,10304.980000000003,5-10-11-4
62,7,8,3,1,62,0.5805580558055805,-0.1339996558449009,1.6956521739130435,12098.529999999986,7-8-3-1
63,7,8,3,2,34,0.5652565256525652,-0.15474268491869195,2.090909090909091,12998.990000000002,7-8-3-2
64,7,8,3,3,8,0.3483348334833483,-0.14190060651188233,3.0,13294.489999999996,7-8-3-3
65,7,8,3,4,3,0.2781278127812781,-0.14289205817078557,2.0,11884.15,7-8-3-4
66,7,8,5,1,55,0.5553555355535553,-0.1535091760997597,1.894736842105263,11347.971799999988,7-8-5-1
67,7,8,5,2,42,0.5697569756975698,-0.15906798438100528,1.625,11992.270000000002,7-8-5-2
68,7,8,5,3,19,0.4608460846084608,-0.15564671522231754,5.333333333333333,14366.130000000003,7-8-5-3
69,7,8,5,4,3,0.20882088208820881,-0.16644064226946206,2.0,10112.27,7-8-5-4
70,7,8,7,1,45,0.5625562556255626,-0.13706220516918574,3.090909090909091,12446.309999999994,7-8-7-1
71,7,8,7,2,38,0.5670567056705671,-0.13869152486786632,2.8,12758.379999999994,7-8-7-2
72,7,8,7,3,19,0.42304230423042305,-0.16063599174350773,2.8,11262.53,7-8-7-3
73,7,8,7,4,4,0.3852385238523852,-0.1755518450759364,1.0,11211.029999999999,7-8-7-4
74,7,8,9,1,38,0.5283528352835284,-0.12248562492207062,3.75,13985.8518,7-8-9-1
75,7,8,9,2,34,0.5166516651665166,-0.12174886751157941,3.25,13954.275,7-8-9-2
76,7,8,9,3,18,0.46444644464446444,-0.21141692150866503,5.0,12161.250000000002,7-8-9-3
77,7,8,9,4,7,0.26552655265526554,-0.11535106933330407,6.0,11574.635000000002,7-8-9-4
0,7,8,11,1,40,0.5310531053105311,-0.12349786066698076,2.6363636363636362,14114.039999999997,7-8-11-1
1,7,8,11,2,34,0.5229522952295229,-0.13811372560458662,2.4,13260.335000000005,7-8-11-2
2,7,8,11,3,23,0.5004500450045004,-0.24874089613264025,2.8333333333333335,10094.300000000003,7-8-11-3
3,7,8,11,4,7,0.4158415841584158,-0.1505191483481604,6.0,11952.775,7-8-11-4
4,7,9,3,1,61,0.5787578757875788,-0.15325101737950747,1.9047619047619047,12324.69179999999,7-9-3-1
5,7,9,3,2,41,0.621962196219622,-0.1736514759726243,1.9285714285714286,12570.950000000006,7-9-3-2
6,7,9,3,3,10,0.42574257425742573,-0.06848241577009292,4.0,13262.18,7-9-3-3
7,7,9,3,4,4,0.38163816381638166,-0.1444963477426672,1.0,10363.96,7-9-3-4
8,7,9,5,1,53,0.5625562556255626,-0.15434907579240204,1.4090909090909092,11205.821800000009,7-9-5-1
9,7,9,5,2,45,0.5310531053105311,-0.1272980471001088,2.0,13076.404999999993,7-9-5-2
10,7,9,5,3,16,0.54995499549955,-0.12463531411992959,2.2,11993.420000000002,7-9-5-3
11,7,9,5,4,3,0.45994599459945995,-0.16049136269361272,2.0,13188.900000000001,7-9-5-4
12,7,9,7,1,44,0.5436543654365437,-0.1496973566478875,2.6666666666666665,13333.981800000009,7-9-7-1
13,7,9,7,2,41,0.5454545454545454,-0.12838824556654102,3.1,13582.289999999999,7-9-7-2
14,7,9,7,3,19,0.44104410441044106,-0.19923385632513094,3.75,11239.920000000004,7-9-7-3
15,7,9,7,4,7,0.2682268226822682,-0.13605178531057818,6.0,11713.155000000002,7-9-7-4
16,7,9,9,1,38,0.5184518451845185,-0.12274839402427175,3.75,15262.161799999996,7-9-9-1
17,7,9,9,2,36,0.5004500450045004,-0.12839373448071909,5.0,13990.949999999993,7-9-9-2
18,7,9,9,3,24,0.43114311431143115,-0.15555852556734684,5.0,12769.509999999998,7-9-9-3
19,7,9,9,4,7,0.24932493249324933,-0.13577802539852116,6.0,11800.710000000001,7-9-9-4
20,7,9,11,1,36,0.49234923492349236,-0.12333775390811977,3.5,14661.07999999999,7-9-11-1
21,7,9,11,2,34,0.45544554455445546,-0.137008100568843,3.25,12930.950000000015,7-9-11-2
22,7,9,11,3,24,0.36363636363636365,-0.14233237081979555,3.8,12312.374999999995,7-9-11-3
23,7,9,11,4,9,0.29972997299729975,-0.13569009445001315,8.0,12605.820000000002,7-9-11-4
24,7,10,3,1,58,0.5607560756075608,-0.15759234211455805,2.0526315789473686,12522.791799999995,7-10-3-1
25,7,10,3,2,43,0.5562556255625563,-0.21550088510794196,1.8666666666666667,11451.03000000001,7-10-3-2
26,7,10,3,3,16,0.39873987398739874,-0.19977120660632974,7.0,12012.3,7-10-3-3
27,7,10,3,4,3,0.38253825382538253,-0.06379415010241124,inf,13621.110000000002,7-10-3-4
28,7,10,5,1,51,0.5463546354635463,-0.14004805331467546,2.0,12198.571799999989,7-10-5-1
29,7,10,5,2,47,0.5256525652565257,-0.13872210549859026,2.9166666666666665,12994.184999999996,7-10-5-2
30,7,10,5,3,19,0.4095409540954095,-0.15773290111008514,2.8,11486.000000000002,7-10-5-3
31,7,10,5,4,7,0.5535553555355536,-0.15361765659156898,6.0,13553.079999999998,7-10-5-4
32,7,10,7,1,43,0.5355535553555355,-0.13889662852493945,3.3,14039.5918,7-10-7-1
33,7,10,7,2,40,0.5310531053105311,-0.1337481026947457,3.4444444444444446,12859.825,7-10-7-2
34,7,10,7,3,25,0.42934293429342935,-0.16572686564768757,4.0,12036.540000000003,7-10-7-3
35,7,10,7,4,7,0.20972097209720972,-0.1352101103121554,6.0,11626.639999999998,7-10-7-4
36,7,10,9,1,35,0.5139513951395139,-0.12307685174022336,4.833333333333333,14006.619999999994,7-10-9-1
37,7,10,9,2,33,0.5211521152115212,-0.14250353472571503,5.6,13160.544999999996,7-10-9-2
38,7,10,9,3,28,0.49324932493249324,-0.17521013796092944,3.0,11390.289999999997,7-10-9-3
39,7,10,9,4,7,0.19711971197119713,-0.1351818842479603,6.0,12245.489999999996,7-10-9-4
40,7,10,11,1,36,0.5121512151215122,-0.1225817241146184,4.142857142857143,14736.459999999997,7-10-11-1
41,7,10,11,2,34,0.49234923492349236,-0.14107532505589548,3.25,12409.250000000004,7-10-11-2
42,7,10,11,3,27,0.43474347434743477,-0.12995838534761373,2.375,12128.655000000006,7-10-11-3
43,7,10,11,4,9,0.33663366336633666,-0.14083535767627375,8.0,11968.77,7-10-11-4
44,7,12,3,1,51,0.5589558955895589,-0.16044720147050473,2.1875,11584.931799999997,7-12-3-1
45,7,12,3,2,41,0.5697569756975698,-0.15408873163664946,3.5555555555555554,12622.160000000003,7-12-3-2
46,7,12,3,3,17,0.38613861386138615,-0.19832765796443444,2.4,9585.17,7-12-3-3
47,7,12,3,4,4,0.13051305130513052,-0.09902372499783525,3.0,10917.45,7-12-3-4
48,7,12,5,1,44,0.5256525652565257,-0.1491928728260766,3.4,14168.061800000001,7-12-5-1
49,7,12,5,2,39,0.5220522052205221,-0.13196163108153355,3.875,12609.359999999999,7-12-5-2
50,7,12,5,3,19,0.41314131413141314,-0.1572167249015591,2.8,11582.449999999995,7-12-5-3
51,7,12,5,4,6,0.1566156615661566,-0.05994105426818801,5.0,11552.990000000002,7-12-5-4
52,7,12,7,1,37,0.5301530153015301,-0.12272549126509362,5.166666666666667,14278.321799999996,7-12-7-1
53,7,12,7,2,36,0.513051305130513,-0.1280998768270418,5.0,13328.915000000005,7-12-7-2
54,7,12,7,3,29,0.5265526552655265,-0.1804772667136524,2.625,11079.875,7-12-7-3
55,7,12,7,4,7,0.2952295229522952,-0.13509581307435004,6.0,11703.98,7-12-7-4
56,7,12,9,1,37,0.5238523852385238,-0.12367903816043549,3.625,14113.125000000002,7-12-9-1
57,7,12,9,2,36,0.49144914491449143,-0.14080666127316888,3.0,12102.024999999994,7-12-9-2
58,7,12,9,3,30,0.49234923492349236,-0.13878875803145901,2.75,12058.135000000006,7-12-9-3
59,7,12,9,4,9,0.3402340234023402,-0.1371946134957454,8.0,11491.130000000005,7-12-9-4
60,7,12,11,1,35,0.5229522952295229,-0.1563741536502908,4.0,12937.23,7-12-11-1
61,7,12,11,2,34,0.5031503150315032,-0.19526702744410107,2.7777777777777777,11913.159999999998,7-12-11-2
62,7,12,11,3,30,0.46894689468946893,-0.20721619008735578,2.75,11827.725,7-12-11-3
63,7,12,11,4,15,0.38163816381638166,-0.12963605642013604,6.5,12092.620000000004,7-12-11-4
64,7,13,3,1,45,0.5193519351935193,-0.14636796003575409,2.75,11909.33179999999,7-13-3-1
65,7,13,3,2,36,0.504950495049505,-0.1325014826766573,3.5,13203.410000000002,7-13-3-2
66,7,13,3,3,16,0.3771377137713771,-0.18518429934867642,2.2,10153.090000000002,7-13-3-3
67,7,13,3,4,7,0.3789378937893789,-0.1558527311659869,2.5,11846.970000000001,7-13-3-4
68,7,13,5,1,39,0.5229522952295229,-0.1388629548177516,3.3333333333333335,13663.621799999997,7-13-5-1
69,7,13,5,2,37,0.49234923492349236,-0.1330749999999998,2.3636363636363638,12136.805,7-13-5-2
70,7,13,5,3,22,0.42844284428442847,-0.19787511317182976,3.4,11184.164999999992,7-13-5-3
71,7,13,5,4,7,0.24662466246624662,-0.15971021711407263,1.3333333333333333,10159.604999999998,7-13-5-4
72,7,13,7,1,36,0.5157515751575158,-0.1240721844293274,5.0,13407.214999999993,7-13-7-1
73,7,13,7,2,35,0.5013501350135013,-0.13803074098572068,4.0,12462.265,7-13-7-2
74,7,13,7,3,28,0.5004500450045004,-0.16802957517144657,2.5,10952.725000000004,7-13-7-3
75,7,13,7,4,8,0.28622862286228623,-0.19348461466722772,3.0,10685.809999999996,7-13-7-4
76,7,13,9,1,37,0.5283528352835284,-0.12231403210445269,4.285714285714286,14594.744999999999,7-13-9-1
77,7,13,9,2,36,0.5031503150315032,-0.1373418101178682,4.142857142857143,12693.950000000004,7-13-9-2
0,7,13,9,3,28,0.46444644464446444,-0.16124827950414403,3.0,11824.585,7-13-9-3
1,7,13,9,4,16,0.39423942394239425,-0.1309862446870213,7.0,13514.929999999998,7-13-9-4
2,7,13,11,1,33,0.5346534653465347,-0.15686506278064125,4.5,12954.955000000009,7-13-11-1
3,7,13,11,2,32,0.5283528352835284,-0.16572282941995825,4.333333333333333,12285.08500000001,7-13-11-2
4,7,13,11,3,29,0.47884788478847884,-0.19960093077706084,3.8333333333333335,11947.1,7-13-11-3
5,7,13,11,4,16,0.41224122412241226,-0.13078927186393496,7.0,12452.63,7-13-11-4
6,7,15,3,1,41,0.5382538253825383,-0.1567757584630885,2.727272727272727,12067.0818,7-15-3-1
7,7,15,3,2,34,0.5013501350135013,-0.1319120376981294,2.7777777777777777,13622.910000000002,7-15-3-2
8,7,15,3,3,16,0.39873987398739874,-0.20075697004003623,2.2,9790.38,7-15-3-3
9,7,15,3,4,5,0.21152115211521152,-0.1357057377302139,4.0,11740.03,7-15-3-4
10,7,15,5,1,37,0.5301530153015301,-0.12265612451548553,4.285714285714286,14562.181800000004,7-15-5-1
11,7,15,5,2,36,0.5202520252025202,-0.1283729964772034,3.5,13907.3,7-15-5-2
12,7,15,5,3,22,0.37533753375337536,-0.2012650917906129,3.4,11048.334999999995,7-15-5-3
13,7,15,5,4,8,0.30423042304230424,-0.14134379920004553,7.0,11816.225,7-15-5-4
14,7,15,7,1,37,0.5076507650765076,-0.12319841521806557,3.111111111111111,13763.649999999994,7-15-7-1
15,7,15,7,2,36,0.4977497749774977,-0.1379820012439199,3.0,12464.140000000003,7-15-7-2
16,7,15,7,3,28,0.5058505850585059,-0.18097389234266226,2.5,11090.545000000002,7-15-7-3
17,7,15,7,4,13,0.3627362736273627,-0.17778164800028592,3.3333333333333335,10816.139999999998,7-15-7-4
18,7,15,9,1,35,0.5301530153015301,-0.16463142332196484,2.888888888888889,13235.499999999998,7-15-9-1
19,7,15,9,2,34,0.5121512151215122,-0.18675484239023712,2.7777777777777777,12471.730000000005,7-15-9-2
20,7,15,9,3,29,0.45724572457245727,-0.21103496126870797,3.142857142857143,11750.804999999997,7-15-9-3
21,7,15,9,4,16,0.38163816381638166,-0.14946572330877933,3.0,11170.525000000003,7-15-9-4
22,7,15,11,1,33,0.5598559855985599,-0.1654067871357946,3.7142857142857144,13034.270000000002,7-15-11-1
23,7,15,11,2,32,0.54005400540054,-0.20355080001799541,3.0,12042.390000000001,7-15-11-2
24,7,15,11,3,29,0.531953195319532,-0.21651848306811028,2.625,11507.134999999997,7-15-11-3
25,7,15,11,4,16,0.3933393339333933,-0.14235407868180325,4.333333333333333,12463.070000000005,7-15-11-4
26,9,10,3,1,52,0.5904590459045904,-0.14869431658252238,3.0,12556.994999999994,9-10-3-1
27,9,10,3,2,27,0.5652565256525652,-0.19584231743679356,3.5,11433.845000000005,9-10-3-2
28,9,10,3,3,13,0.504050405040504,-0.18872136211525015,3.3333333333333335,11360.870000000003,9-10-3-3
29,9,10,3,4,1,0.18091809180918092,-0.13493696565715113,0.0,9898.24,9-10-3-4
30,9,10,5,1,48,0.5724572457245725,-0.1383650041352805,4.333333333333333,12945.179999999995,9-10-5-1
31,9,10,5,2,35,0.5616561656165616,-0.1444430680910504,2.888888888888889,12516.165,9-10-5-2
32,9,10,5,3,17,0.43204320432043203,-0.14532335478833144,2.4,11822.840000000002,9-10-5-3
33,9,10,5,4,6,0.2601260126012601,-0.16322793188219756,1.0,10055.029999999999,9-10-5-4
34,9,10,7,1,41,0.5427542754275427,-0.12957823408259833,3.5555555555555554,13918.990000000009,9-10-7-1
35,9,10,7,2,34,0.5292529252925292,-0.1506052245388679,2.4,11725.314999999999,9-10-7-2
36,9,10,7,3,19,0.46624662466246625,-0.18766463775938155,2.8,10500.474999999991,9-10-7-3
37,9,10,7,4,7,0.5841584158415841,-0.13594507888887686,6.0,15820.28,9-10-7-4
38,9,10,9,1,37,0.5292529252925292,-0.13702610187944608,3.625,13599.175000000001,9-10-9-1
39,9,10,9,2,32,0.4815481548154815,-0.16770560951313654,2.5555555555555554,11390.179999999998,9-10-9-2
40,9,10,9,3,22,0.49414941494149417,-0.23069360215575196,2.142857142857143,10240.675000000001,9-10-9-3
41,9,10,9,4,10,0.32853285328532855,-0.13596920245169183,9.0,12933.569999999998,9-10-9-4
42,9,10,11,1,34,0.5427542754275427,-0.1604439854959709,3.857142857142857,12886.969999999998,9-10-11-1
43,9,10,11,2,32,0.5292529252925292,-0.21130756017519026,3.0,11569.330000000002,9-10-11-2
44,9,10,11,3,24,0.5283528352835284,-0.21580128784348065,3.0,11518.495,9-10-11-3
45,9,10,11,4,10,0.40504050405040504,-0.21799693187572605,2.3333333333333335,10783.940000000002,9-10-11-4
46,9,12,3,1,47,0.5904590459045904,-0.14907686642182472,3.272727272727273,12306.399999999998,9-12-3-1
47,9,12,3,2,38,0.5355535553555355,-0.12200569916822175,3.2222222222222223,13474.420000000004,9-12-3-2
48,9,12,3,3,19,0.41224122412241226,-0.13754847877972154,3.75,11834.52,9-12-3-3
49,9,12,3,4,7,0.39693969396939693,-0.15576443150057093,1.3333333333333333,10657.39,9-12-3-4
50,9,12,5,1,41,0.5508550855085509,-0.13948324425467576,4.857142857142857,13073.950000000003,9-12-5-1
51,9,12,5,2,37,0.5526552655265526,-0.1332293564316729,4.285714285714286,12531.605000000009,9-12-5-2
52,9,12,5,3,25,0.576957695769577,-0.21544528079497507,2.125,10317.11,9-12-5-3
53,9,12,5,4,10,0.5427542754275427,-0.13519623614209547,4.0,14195.02,9-12-5-4
54,9,12,7,1,38,0.540954095409541,-0.1376106867987391,5.333333333333333,14934.334999999997,9-12-7-1
55,9,12,7,2,35,0.5274527452745275,-0.15444123953943062,3.375,12000.969999999994,9-12-7-2
56,9,12,7,3,29,0.5085508550855086,-0.20131855667000212,3.8333333333333335,11919.695000000003,9-12-7-3
57,9,12,7,4,13,0.4014401440144014,-0.22539455265299013,3.3333333333333335,12311.209999999997,9-12-7-4
58,9,12,9,1,36,0.5526552655265526,-0.1576747561493481,4.142857142857143,12885.590000000004,9-12-9-1
59,9,12,9,2,34,0.531953195319532,-0.17759182830404285,3.25,12048.625000000005,9-12-9-2
60,9,12,9,3,29,0.49504950495049505,-0.2101697591788394,2.2222222222222223,11111.135000000004,9-12-9-3
61,9,12,9,4,16,0.47974797479747977,-0.24264533997595059,2.2,10283.130000000001,9-12-9-4
62,9,12,11,1,33,0.5364536453645364,-0.15980445378844438,4.5,12729.300000000001,9-12-11-1
63,9,12,11,2,32,0.5256525652565257,-0.16556038644088,3.0,12298.485000000006,9-12-11-2
64,9,12,11,3,26,0.5148514851485149,-0.23093247724900606,3.3333333333333335,10990.165000000006,9-12-11-3
65,9,12,11,4,16,0.4527452745274527,-0.16582769937614358,3.0,11833.559999999998,9-12-11-4
66,9,14,3,1,39,0.5436543654365437,-0.13823596810617175,2.9,13274.489999999998,9-14-3-1
67,9,14,3,2,32,0.49144914491449143,-0.1454184352110294,3.5714285714285716,12914.010000000007,9-14-3-2
68,9,14,3,3,21,0.43294329432943296,-0.26522249758641625,1.3333333333333333,8862.350000000008,9-14-3-3
69,9,14,3,4,10,0.3402340234023402,-0.13541127848853138,2.3333333333333335,10843.215,9-14-3-4
70,9,14,5,1,38,0.549054905490549,-0.13795519208735202,5.333333333333333,14436.271799999995,9-14-5-1
71,9,14,5,2,35,0.5373537353735374,-0.15492938873322645,3.375,11750.641799999994,9-14-5-2
72,9,14,5,3,27,0.5517551755175517,-0.2082184418065415,2.857142857142857,11088.501799999996,9-14-5-3
73,9,14,5,4,14,0.4446444644464446,-0.22530126435708453,2.5,10633.211799999995,9-14-5-4
74,9,14,7,1,36,0.5364536453645364,-0.13364567285483475,4.142857142857143,12974.155000000004,9-14-7-1
75,9,14,7,2,34,0.5328532853285328,-0.1484072139292631,3.25,11880.900000000003,9-14-7-2
76,9,14,7,3,28,0.5013501350135013,-0.1965368581335121,3.0,11582.800000000001,9-14-7-3
77,9,14,7,4,18,0.5607560756075608,-0.24349811205318203,2.6,10706.189999999999,9-14-7-4
0,9,14,9,1,33,0.5283528352835284,-0.17310825139772518,3.7142857142857144,12662.230000000003,9-14-9-1
1,9,14,9,2,32,0.504050405040504,-0.17912435357088038,3.0,12592.405000000008,9-14-9-2
2,9,14,9,3,29,0.46984698469846986,-0.22580305012594964,2.625,10813.470000000003,9-14-9-3
3,9,14,9,4,17,0.38433843384338434,-0.16478645469900735,4.666666666666667,10919.22,9-14-9-4
4,9,14,11,1,30,0.5328532853285328,-0.1974254410613333,3.2857142857142856,11725.470000000001,9-14-11-1
5,9,14,11,2,30,0.5283528352835284,-0.17787418655097634,2.3333333333333335,12561.004999999997,9-14-11-2
6,9,14,11,3,28,0.5076507650765076,-0.23612685932534652,2.5,11088.889999999996,9-14-11-3
7,9,14,11,4,22,0.45094509450945097,-0.19858831598098675,2.6666666666666665,10870.975000000002,9-14-11-4
8,9,15,3,1,38,0.531953195319532,-0.12263799832050429,3.75,14558.816800000006,9-15-3-1
9,9,15,3,2,34,0.46354635463546356,-0.12300377508006921,3.25,13563.920000000006,9-15-3-2
10,9,15,3,3,23,0.3996399639963996,-0.1922307593398559,2.8333333333333335,11493.96,9-15-3-3
11,9,15,3,4,7,0.24932493249324933,-0.13560160712887703,6.0,11627.094999999996,9-15-3-4
12,9,15,5,1,39,0.5472547254725473,-0.13735325158580783,3.875,14134.720000000001,9-15-5-1
13,9,15,5,2,36,0.5310531053105311,-0.14467661444116964,3.0,12776.330000000004,9-15-5-2
14,9,15,5,3,28,0.5436543654365437,-0.24978810895279283,2.5,10942.575000000003,9-15-5-3
15,9,15,5,4,12,0.3483348334833483,-0.2262058373068732,3.0,10650.53,9-15-5-4
16,9,15,7,1,35,0.5418541854185418,-0.17025159052000982,4.0,12741.359999999997,9-15-7-1
17,9,15,7,2,32,0.5310531053105311,-0.18662245384022144,3.5714285714285716,12440.144999999997,9-15-7-2
18,9,15,7,3,27,0.459045904590459,-0.19584803730214653,2.857142857142857,11144.884999999995,9-15-7-3
19,9,15,7,4,14,0.41854185418541856,-0.1510935105361946,6.0,12167.55,9-15-7-4
20,9,15,9,1,33,0.5373537353735374,-0.17263171919075948,3.7142857142857144,12535.080000000007,9-15-9-1
21,9,15,9,2,31,0.5274527452745275,-0.17955923480332606,2.875,12704.770000000011,9-15-9-2
22,9,15,9,3,29,0.5076507650765076,-0.24485511531638088,2.625,11081.005000000006,9-15-9-3
23,9,15,9,4,18,0.39693969396939693,-0.1875953023763149,3.5,10928.575,9-15-9-4
24,9,15,11,1,31,0.5373537353735374,-0.1984705813348619,2.875,11703.040000000005,9-15-11-1
25,9,15,11,2,30,0.531953195319532,-0.17663211211943897,2.3333333333333335,12335.49000000001,9-15-11-2
26,9,15,11,3,30,0.5211521152115212,-0.20626551310100663,2.0,11311.900000000001,9-15-11-3
27,9,15,11,4,21,0.47434743474347435,-0.1756657670317974,4.25,10741.250000000002,9-15-11-4
28,9,17,3,1,37,0.5364536453645364,-0.12373679359394167,2.7,13399.329999999996,9-17-3-1
29,9,17,3,2,34,0.47164716471647167,-0.13687378313187104,3.25,13914.040000000003,9-17-3-2
30,9,17,3,3,21,0.44554455445544555,-0.25206951397605987,2.0,9868.815000000008,9-17-3-3
31,9,17,3,4,6,0.2844284428442844,-0.1410321385805562,5.0,12216.939999999993,9-17-3-4
32,9,17,5,1,37,0.540954095409541,-0.1400180854784058,4.285714285714286,13253.865000000009,9-17-5-1
33,9,17,5,2,36,0.5121512151215122,-0.13352863264218756,3.5,13229.930000000011,9-17-5-2
34,9,17,5,3,29,0.495949594959496,-0.15684057967047635,3.8333333333333335,12670.224999999997,9-17-5-3
35,9,17,5,4,12,0.3582358235823582,-0.14182927954069266,5.0,13049.400000000003,9-17-5-4
36,9,17,7,1,34,0.54995499549955,-0.17810936098986999,3.25,12734.100000000002,9-17-7-1
37,9,17,7,2,33,0.5301530153015301,-0.17440830274648758,3.125,12534.865000000013,9-17-7-2
38,9,17,7,3,29,0.47614761476147616,-0.20325060595115174,2.625,11097.419999999998,9-17-7-3
39,9,17,7,4,15,0.4014401440144014,-0.22264657876303048,2.0,11480.044999999996,9-17-7-4
40,9,17,9,1,32,0.5418541854185418,-0.1953300706164106,3.0,11766.46000000001,9-17-9-1
41,9,17,9,2,32,0.5328532853285328,-0.15714965739496145,2.2,12967.309999999998,9-17-9-2
42,9,17,9,3,28,0.5058505850585059,-0.2349513123050862,3.0,11049.775,9-17-9-3
43,9,17,9,4,24,0.459045904590459,-0.16687630214105265,5.0,11770.839999999995,9-17-9-4
44,9,17,11,1,30,0.5697569756975698,-0.19651406771131585,3.2857142857142856,11948.099999999999,9-17-11-1
45,9,17,11,2,30,0.5625562556255626,-0.16094813025467786,2.75,12155.35,9-17-11-2
46,9,17,11,3,28,0.5454545454545454,-0.20414823060154946,3.0,11569.199999999995,9-17-11-3
47,9,17,11,4,21,0.5085508550855086,-0.16327189021264185,3.2,11484.505000000006,9-17-11-4
48,9,19,3,1,34,0.5292529252925292,-0.15715070916616916,3.857142857142857,12734.790000000005,9-19-3-1
49,9,19,3,2,33,0.5013501350135013,-0.18293603064511083,3.125,12489.055,9-19-3-2
50,9,19,3,3,22,0.43924392439243926,-0.21226883291416512,3.4,10962.785000000005,9-19-3-3
51,9,19,3,4,10,0.31683168316831684,-0.1438982514135307,4.0,10657.74,9-19-3-4
52,9,19,5,1,33,0.5526552655265526,-0.16902840746892003,5.6,13021.290000000005,9-19-5-1
53,9,19,5,2,32,0.5382538253825383,-0.16416242630527914,4.333333333333333,12514.190000000006,9-19-5-2
54,9,19,5,3,28,0.5022502250225023,-0.20473317560770854,4.6,11883.345000000012,9-19-5-3
55,9,19,5,4,17,0.46894689468946893,-0.2217299473764063,2.4,11376.45,9-19-5-4
56,9,19,7,1,33,0.5535553555355536,-0.17752453524672124,4.5,12681.110000000006,9-19-7-1
57,9,19,7,2,32,0.5454545454545454,-0.16732519086994563,3.5714285714285716,13122.279999999995,9-19-7-2
58,9,19,7,3,28,0.5157515751575158,-0.24498486691775362,3.0,10797.230000000005,9-19-7-3
59,9,19,7,4,21,0.46354635463546356,-0.2223111085900379,6.0,12419.000000000002,9-19-7-4
60,9,19,9,1,32,0.5598559855985599,-0.20561922302290467,2.5555555555555554,11593.590000000006,9-19-9-1
61,9,19,9,2,32,0.5562556255625563,-0.16847041224360554,2.5555555555555554,12048.340000000004,9-19-9-2
62,9,19,9,3,31,0.5463546354635463,-0.18207295288844935,2.875,11942.014999999998,9-19-9-3
63,9,19,9,4,23,0.4977497749774977,-0.15354296473292572,4.75,11604.925000000003,9-19-9-4
64,9,19,11,1,28,0.5679567956795679,-0.1664373085826045,3.6666666666666665,12090.580000000007,9-19-11-1
65,9,19,11,2,28,0.5670567056705671,-0.17364049286995722,3.0,11891.850000000002,9-19-11-2
66,9,19,11,3,26,0.5445544554455446,-0.19343927348818102,3.3333333333333335,11342.099999999993,9-19-11-3
67,9,19,11,4,22,0.4734473447344735,-0.13934478960927205,3.4,11816.960000000001,9-19-11-4
68,11,12,3,1,44,0.5607560756075608,-0.12833270370691985,5.285714285714286,14271.995000000006,11-12-3-1
69,11,12,3,2,26,0.5301530153015301,-0.24104446969142101,4.2,10899.771799999999,11-12-3-2
70,11,12,3,3,12,0.5643564356435643,-0.19847648228372353,3.0,12246.940000000002,11-12-3-3
71,11,12,3,4,3,0.34293429342934295,-0.13551429070376625,2.0,11964.529999999997,11-12-3-4
72,11,12,5,1,42,0.5715571557155715,-0.12371705601874884,2.8181818181818183,13511.1118,11-12-5-1
73,11,12,5,2,35,0.5634563456345635,-0.1511873148798487,3.375,11888.756800000005,11-12-5-2
74,11,12,5,3,17,0.6300630063006301,-0.21998564242807886,3.25,11896.551800000005,11-12-5-3
75,11,12,5,4,8,0.5904590459045904,-0.22543946118321548,1.6666666666666667,11787.351799999997,11-12-5-4
76,11,12,7,1,39,0.5328532853285328,-0.13854418174589053,2.9,13182.300000000003,11-12-7-1
77,11,12,7,2,35,0.5166516651665166,-0.1563073622330982,2.5,12654.345000000005,11-12-7-2
0,11,12,7,3,21,0.5661566156615662,-0.2545046290153758,2.5,10420.160000000003,11-12-7-3
1,11,12,7,4,11,0.4239423942394239,-0.1414059908199782,2.6666666666666665,11736.859999999997,11-12-7-4
2,11,12,9,1,36,0.5481548154815482,-0.1657454189115678,3.0,12889.300000000005,11-12-9-1
3,11,12,9,2,35,0.5391539153915391,-0.15683962659787962,2.888888888888889,12648.030000000002,11-12-9-2
4,11,12,9,3,30,0.5328532853285328,-0.1827232804885394,2.0,12036.445,11-12-9-3
5,11,12,9,4,9,0.45724572457245727,-0.2290757404128132,1.25,11072.109999999999,11-12-9-4
6,11,12,11,1,33,0.5553555355535553,-0.18144906936834965,3.7142857142857144,12333.439999999993,11-12-11-1
7,11,12,11,2,33,0.5553555355535553,-0.15664816711435875,2.6666666666666665,12468.305000000004,11-12-11-2
8,11,12,11,3,28,0.49504950495049505,-0.22987733981181285,1.8,11314.689999999991,11-12-11-3
9,11,12,11,4,14,0.5787578757875788,-0.17956065488818013,2.5,12891.059999999998,11-12-11-4
10,11,14,3,1,43,0.5715571557155715,-0.1277274789052579,3.3,13986.206799999994,11-14-3-1
11,11,14,3,2,35,0.5625562556255626,-0.12753084164996542,2.5,13443.891799999996,11-14-3-2
12,11,14,3,3,20,0.6327632763276327,-0.17516783058426982,3.0,12257.3168,11-14-3-3
13,11,14,3,4,5,0.37353735373537356,-0.22601011572730362,0.6666666666666666,9413.081799999998,11-14-3-4
14,11,14,5,1,38,0.5733573357335734,-0.14395601896596819,3.2222222222222223,12706.889999999996,11-14-5-1
15,11,14,5,2,36,0.5778577857785778,-0.13098129237305883,2.6,13076.91,11-14-5-2
16,11,14,5,3,24,0.5391539153915391,-0.17716911301318836,2.4285714285714284,11759.355000000003,11-14-5-3
17,11,14,5,4,8,0.5823582358235824,-0.13716196361473987,3.0,14079.32,11-14-5-4
18,11,14,7,1,35,0.5436543654365437,-0.13652212942346487,3.375,14427.550000000005,11-14-7-1
19,11,14,7,2,35,0.5274527452745275,-0.13400090230613315,2.5,13354.349999999999,11-14-7-2
20,11,14,7,3,30,0.504050405040504,-0.19655298723300346,3.2857142857142856,11164.905000000006,11-14-7-3
21,11,14,7,4,11,0.5679567956795679,-0.2431300783643286,1.2,11133.920000000002,11-14-7-4
22,11,14,9,1,34,0.5481548154815482,-0.1616888391289079,3.857142857142857,12835.47,11-14-9-1
23,11,14,9,2,34,0.5355535553555355,-0.17268890771030188,2.4,12513.399999999998,11-14-9-2
24,11,14,9,3,31,0.5148514851485149,-0.2514159329004233,1.8181818181818181,10639.395,11-14-9-3
25,11,14,9,4,21,0.49864986498649866,-0.23124025998707676,1.625,10660.154999999997,11-14-9-4
26,11,14,11,1,32,0.5607560756075608,-0.19682598286434175,2.2,11800.680000000011,11-14-11-1
27,11,14,11,2,32,0.5508550855085509,-0.21337174840396103,1.9090909090909092,11169.100000000002,11-14-11-2
28,11,14,11,3,31,0.540954095409541,-0.2856919970543302,1.5833333333333333,9822.625,11-14-11-3
29,11,14,11,4,24,0.5346534653465347,-0.284030558418037,1.4,9557.870000000003,11-14-11-4
30,11,16,3,1,38,0.5724572457245725,-0.1341928162337488,4.428571428571429,13676.679999999998,11-16-3-1
31,11,16,3,2,34,0.5670567056705671,-0.14006529265919765,3.25,13849.290000000003,11-16-3-2
32,11,16,3,3,22,0.45454545454545453,-0.17392934578829822,4.5,13765.940000000004,11-16-3-3
33,11,16,3,4,9,0.40054005400540055,-0.22028165609589873,2.0,11006.21,11-16-3-4
34,11,16,5,1,35,0.5418541854185418,-0.12832646803606798,4.0,15012.469999999994,11-16-5-1
35,11,16,5,2,34,0.5184518451845185,-0.13387458148380332,2.7777777777777777,14067.420000000004,11-16-5-2
36,11,16,5,3,29,0.4896489648964896,-0.1781558301062195,3.8333333333333335,11704.850000000004,11-16-5-3
37,11,16,5,4,14,0.47254725472547254,-0.23769676738137147,2.5,10990.994999999995,11-16-5-4
38,11,16,7,1,34,0.5625562556255626,-0.16471036710784004,3.857142857142857,12875.739999999996,11-16-7-1
39,11,16,7,2,33,0.5373537353735374,-0.1753721097799869,2.6666666666666665,12758.554999999998,11-16-7-2
40,11,16,7,3,31,0.5427542754275427,-0.1907530166205162,2.4444444444444446,11407.669999999998,11-16-7-3
41,11,16,7,4,22,0.4608460846084608,-0.15397103174641524,1.75,11166.950000000003,11-16-7-4
42,11,16,9,1,31,0.5481548154815482,-0.1956455793557977,2.4444444444444446,12059.229999999998,11-16-9-1
43,11,16,9,2,31,0.549054905490549,-0.191972085114828,2.1,11625.995000000003,11-16-9-2
44,11,16,9,3,29,0.5355535553555355,-0.274623413969388,2.2222222222222223,10114.625000000005,11-16-9-3
45,11,16,9,4,21,0.5274527452745275,-0.27418395556580194,2.0,9743.350000000002,11-16-9-4
46,11,16,11,1,30,0.5607560756075608,-0.19316957795704992,2.75,11719.889999999996,11-16-11-1
47,11,16,11,2,30,0.5634563456345635,-0.196072456018292,2.3333333333333335,11155.099999999997,11-16-11-2
48,11,16,11,3,28,0.5517551755175517,-0.23308494385965534,2.5,10770.480000000012,11-16-11-3
49,11,16,11,4,24,0.5013501350135013,-0.17239450824862226,3.0,11569.080000000002,11-16-11-4
50,11,19,3,1,33,0.5805580558055805,-0.1563927039933199,5.6,13440.534999999998,11-19-3-1
51,11,19,3,2,31,0.549054905490549,-0.20407708714773762,3.4285714285714284,12389.78000000001,11-19-3-2
52,11,19,3,3,25,0.5076507650765076,-0.17886286782750369,5.25,13412.115000000009,11-19-3-3
53,11,19,3,4,10,0.39423942394239425,-0.1622184492273583,4.0,11209.19,11-19-3-4
54,11,19,5,1,33,0.5607560756075608,-0.16251972767853487,3.7142857142857144,13035.72,11-19-5-1
55,11,19,5,2,31,0.5364536453645364,-0.17257700236463916,2.875,12212.860000000002,11-19-5-2
56,11,19,5,3,26,0.48244824482448245,-0.24960821378195372,2.7142857142857144,10323.430000000002,11-19-5-3
57,11,19,5,4,18,0.4239423942394239,-0.227374167314544,2.6,10479.795000000004,11-19-5-4
58,11,19,7,1,32,0.5634563456345635,-0.18229956167534106,2.5555555555555554,12251.500000000002,11-19-7-1
59,11,19,7,2,31,0.5418541854185418,-0.20993488843501829,2.4444444444444446,11287.84000000001,11-19-7-2
60,11,19,7,3,28,0.5211521152115212,-0.25600737307139165,2.111111111111111,10310.629999999994,11-19-7-3
61,11,19,7,4,24,0.4878487848784879,-0.1701206921291173,2.4285714285714284,11296.004999999997,11-19-7-4
62,11,19,9,1,31,0.5670567056705671,-0.1593030351603912,3.4285714285714284,12264.200000000003,11-19-9-1
63,11,19,9,2,30,0.5571557155715572,-0.16925800463148968,2.75,11546.515000000003,11-19-9-2
64,11,19,9,3,27,0.5328532853285328,-0.21729703963680655,2.0,10677.640000000005,11-19-9-3
65,11,19,9,4,24,0.4815481548154815,-0.17848063699688677,3.0,11490.43,11-19-9-4
66,11,19,11,1,28,0.5751575157515751,-0.1650051273278672,3.0,12247.840000000002,11-19-11-1
67,11,19,11,2,27,0.5589558955895589,-0.21631893759507567,2.375,11191.424999999994,11-19-11-2
68,11,19,11,3,26,0.5607560756075608,-0.20283015977103785,3.3333333333333335,11082.124999999996,11-19-11-3
69,11,19,11,4,22,0.49324932493249324,-0.17710199999999968,2.142857142857143,10905.400000000009,11-19-11-4
70,11,21,3,1,33,0.5778577857785778,-0.15692202424174723,4.5,13867.809999999998,11-21-3-1
71,11,21,3,2,30,0.5535553555355536,-0.15887912110371127,4.0,12690.900000000012,11-21-3-2
72,11,21,3,3,24,0.49414941494149417,-0.2186640878273015,5.0,11787.740000000007,11-21-3-3
73,11,21,3,4,9,0.31413141314131415,-0.1943010539947481,2.0,9093.824999999995,11-21-3-4
74,11,21,5,1,32,0.5643564356435643,-0.19079675963434398,3.0,12448.049999999997,11-21-5-1
75,11,21,5,2,32,0.5562556255625563,-0.1633355894785322,2.5555555555555554,12733.510000000006,11-21-5-2
76,11,21,5,3,30,0.5292529252925292,-0.22300804068977287,2.75,10898.205000000007,11-21-5-3
77,11,21,5,4,21,0.44734473447344736,-0.20314399999999988,1.625,10507.200000000008,11-21-5-4
0,11,21,7,1,29,0.5895589558955896,-0.17145180254985531,3.8333333333333335,12163.570000000002,11-21-7-1
1,11,21,7,2,29,0.5823582358235824,-0.16965414687510344,3.8333333333333335,12108.550000000005,11-21-7-2
2,11,21,7,3,27,0.5670567056705671,-0.2205129007929529,2.375,11328.630000000001,11-21-7-3
3,11,21,7,4,25,0.5247524752475248,-0.17922722577676406,2.125,11208.010000000002,11-21-7-4
4,11,21,9,1,28,0.5688568856885688,-0.1775974566089353,3.0,12138.7,11-21-9-1
5,11,21,9,2,28,0.5643564356435643,-0.2286502507894884,2.111111111111111,10855.384999999993,11-21-9-2
6,11,21,9,3,25,0.5382538253825383,-0.19930039939011085,2.5714285714285716,11094.135000000002,11-21-9-3
7,11,21,9,4,21,0.459045904590459,-0.15818899999999975,2.5,10977.030000000002,11-21-9-4
8,11,21,11,1,29,0.585958595859586,-0.16178272519532827,3.142857142857143,12852.995,11-21-11-1
9,11,21,11,2,29,0.576957695769577,-0.1841750990141075,2.625,11817.569999999989,11-21-11-2
10,11,21,11,3,27,0.5598559855985599,-0.20652318119273877,2.857142857142857,10975.110000000002,11-21-11-3
11,11,21,11,4,23,0.5292529252925292,-0.21940083440025165,2.2857142857142856,10636.300000000005,11-21-11-4
12,11,23,3,1,31,0.5832583258325833,-0.16411060634644475,4.166666666666667,13707.970000000001,11-23-3-1
13,11,23,3,2,30,0.5724572457245725,-0.15731516020038014,3.2857142857142856,12347.770000000013,11-23-3-2
14,11,23,3,3,25,0.49234923492349236,-0.23074001778362507,2.125,10501.475000000008,11-23-3-3
15,11,23,3,4,10,0.47254725472547254,-0.22763299999999972,1.5,9856.169999999998,11-23-3-4
16,11,23,5,1,29,0.576957695769577,-0.18238141372056008,3.8333333333333335,12468.17,11-23-5-1
17,11,23,5,2,29,0.5787578757875788,-0.17011120994347692,3.8333333333333335,12430.420000000006,11-23-5-2
18,11,23,5,3,26,0.5760576057605761,-0.22170377391300988,2.25,10714.965000000013,11-23-5-3
19,11,23,5,4,22,0.47254725472547254,-0.1337749999999998,3.4,11652.879999999997,11-23-5-4
20,11,23,7,1,28,0.5742574257425742,-0.16769130174826935,3.6666666666666665,12264.629999999997,11-23-7-1
21,11,23,7,2,28,0.5643564356435643,-0.17889824876311403,3.0,11871.350000000006,11-23-7-2
22,11,23,7,3,26,0.5337533753375338,-0.21652366919728178,1.8888888888888888,10454.484999999995,11-23-7-3
23,11,23,7,4,21,0.5220522052205221,-0.19371499999999978,2.5,10721.090000000002,11-23-7-4
24,11,23,9,1,28,0.5751575157515751,-0.1720155396305871,3.6666666666666665,12142.120000000004,11-23-9-1
25,11,23,9,2,28,0.5715571557155715,-0.15611159294866667,2.5,12008.669999999995,11-23-9-2
26,11,23,9,3,25,0.5436543654365437,-0.21715385471964538,2.125,10444.990000000007,11-23-9-3
27,11,23,9,4,20,0.504050405040504,-0.25013049999999964,1.8571428571428572,9476.535,11-23-9-4
28,11,23,11,1,27,0.5886588658865887,-0.20243677225773124,2.375,12222.095,11-23-11-1
29,11,23,11,2,27,0.585058505850585,-0.20794767175650372,2.0,11504.89999999999,11-23-11-2
30,11,23,11,3,24,0.5598559855985599,-0.22383220269360207,2.0,10630.320000000005,11-23-11-3
31,11,23,11,4,22,0.5238523852385238,-0.21257220999067475,2.142857142857143,10252.665000000008,11-23-11-4
32,13,14,3,1,41,0.5877587758775877,-0.14634059089059126,3.1,13587.876799999996,13-14-3-1
33,13,14,3,2,24,0.5274527452745275,-0.19662573314088644,3.8,11033.491799999996,13-14-3-2
34,13,14,3,3,13,0.5382538253825383,-0.25507811114870005,2.25,10485.170000000004,13-14-3-3
35,13,14,3,4,4,0.2988298829882988,-0.1479686829116307,3.0,11043.909999999998,13-14-3-4
36,13,14,5,1,37,0.5742574257425742,-0.13413271302335303,4.285714285714286,14304.629999999996,13-14-5-1
37,13,14,5,2,31,0.5895589558955896,-0.16574201091910123,2.875,12968.214999999993,13-14-5-2
38,13,14,5,3,19,0.6165616561656165,-0.16182930260800024,2.8,11640.209999999997,13-14-5-3
39,13,14,5,4,5,0.729072907290729,-0.24457495006770139,1.5,11553.549999999996,13-14-5-4
40,13,14,7,1,35,0.5571557155715572,-0.16042701170859594,3.375,13150.069999999992,13-14-7-1
41,13,14,7,2,34,0.5481548154815482,-0.16687174890074377,2.4,12442.354999999998,13-14-7-2
42,13,14,7,3,26,0.5877587758775877,-0.26407813019933046,1.3636363636363635,9809.224999999997,13-14-7-3
43,13,14,7,4,15,0.5598559855985599,-0.26299799999999995,1.1428571428571428,10406.109999999999,13-14-7-4
44,13,14,9,1,32,0.5472547254725473,-0.18638723859428477,2.2,11954.834999999997,13-14-9-1
45,13,14,9,2,31,0.5481548154815482,-0.22452025180232912,1.8181818181818181,11028.755000000008,13-14-9-2
46,13,14,9,3,26,0.5526552655265526,-0.2594765135399296,1.8888888888888888,9967.685000000003,13-14-9-3
47,13,14,9,4,14,0.6615661566156615,-0.1808848942298141,1.3333333333333333,12147.58,13-14-9-4
48,13,14,11,1,32,0.5688568856885688,-0.20346556294470522,2.2,11425.629999999997,13-14-11-1
49,13,14,11,2,30,0.5607560756075608,-0.2130859243320438,1.7272727272727273,10784.864999999998,13-14-11-2
50,13,14,11,3,28,0.5589558955895589,-0.21365804256695606,1.8,10437.224999999999,13-14-11-3
51,13,14,11,4,17,0.5571557155715572,-0.23162981468558888,2.4,11310.594999999994,13-14-11-4
52,13,17,3,1,36,0.5670567056705671,-0.12723460633446473,3.0,13824.865000000002,13-17-3-1
53,13,17,3,2,33,0.5355535553555355,-0.175739632025319,2.6666666666666665,12163.389999999992,13-17-3-2
54,13,17,3,3,22,0.504950495049505,-0.23682372118295486,4.5,11111.779999999997,13-17-3-3
55,13,17,3,4,12,0.4014401440144014,-0.24610672804777825,1.4,10816.599999999995,13-17-3-4
56,13,17,5,1,32,0.5922592259225923,-0.16123570300929047,3.5714285714285716,13059.454999999996,13-17-5-1
57,13,17,5,2,31,0.5823582358235824,-0.18670457950064495,3.4285714285714284,12271.265000000003,13-17-5-2
58,13,17,5,3,26,0.5157515751575158,-0.22941047914566534,2.7142857142857144,10599.339999999997,13-17-5-3
59,13,17,5,4,13,0.5013501350135013,-0.21184307563276358,1.6,11267.930000000002,13-17-5-4
60,13,17,7,1,31,0.5616561656165616,-0.1826272188457144,2.875,12028.510000000002,13-17-7-1
61,13,17,7,2,31,0.5544554455445545,-0.21184186607219682,2.4444444444444446,10987.800000000007,13-17-7-2
62,13,17,7,3,27,0.5634563456345635,-0.19803922709304725,2.857142857142857,11369.854999999998,13-17-7-3
63,13,17,7,4,16,0.48424842484248426,-0.23470627980882647,1.6666666666666667,10327.180000000008,13-17-7-4
64,13,17,9,1,30,0.5688568856885688,-0.1959296365308506,2.75,11280.534999999998,13-17-9-1
65,13,17,9,2,30,0.5760576057605761,-0.17392151874799594,1.7272727272727273,11431.529999999995,13-17-9-2
66,13,17,9,3,26,0.5616561656165616,-0.1949550304336072,2.7142857142857144,11179.514999999996,13-17-9-3
67,13,17,9,4,19,0.5463546354635463,-0.2520089999999998,1.7142857142857142,9984.41,13-17-9-4
68,13,17,11,1,30,0.5814581458145814,-0.1754955298622477,2.3333333333333335,12424.589999999991,13-17-11-1
69,13,17,11,2,30,0.5886588658865887,-0.21625148377510783,2.3333333333333335,11497.039999999999,13-17-11-2
70,13,17,11,3,26,0.5697569756975698,-0.19544810522215514,3.3333333333333335,11605.789999999992,13-17-11-3
71,13,17,11,4,21,0.513051305130513,-0.21585819706293363,2.0,10767.220000000005,13-17-11-4
72,13,20,3,1,32,0.5841584158415841,-0.16879562043795654,2.5555555555555554,12156.42499999999,13-20-3-1
73,13,20,3,2,29,0.5418541854185418,-0.17336593041126577,3.142857142857143,11531.440000000006,13-20-3-2
74,13,20,3,3,20,0.49504950495049505,-0.21676066902403154,1.8571428571428572,11217.770000000004,13-20-3-3
75,13,20,3,4,11,0.4221422142214221,-0.2113502849857375,4.5,11619.55,13-20-3-4
76,13,20,5,1,32,0.5805580558055805,-0.21221988341055165,2.5555555555555554,11794.820000000002,13-20-5-1
77,13,20,5,2,31,0.5508550855085509,-0.20447950811722868,2.4444444444444446,11224.65000000001,13-20-5-2
0,13,20,5,3,25,0.5103510351035103,-0.2180787495829985,2.5714285714285716,10515.424999999997,13-20-5-3
1,13,20,5,4,18,0.41674167416741675,-0.2685909999999999,2.0,9338.810000000005,13-20-5-4
2,13,20,7,1,30,0.5751575157515751,-0.19450467356130316,2.75,11774.335000000001,13-20-7-1
3,13,20,7,2,28,0.5661566156615662,-0.1815963364725556,2.111111111111111,11568.959999999997,13-20-7-2
4,13,20,7,3,26,0.5562556255625563,-0.2076236405174857,2.7142857142857144,11143.339999999998,13-20-7-3
5,13,20,7,4,20,0.48874887488748875,-0.23011749999999984,2.3333333333333335,9832.175000000005,13-20-7-4
6,13,20,9,1,29,0.5688568856885688,-0.1591200316045511,3.142857142857143,12142.949999999986,13-20-9-1
7,13,20,9,2,28,0.5643564356435643,-0.1988916357843307,2.111111111111111,10728.529999999992,13-20-9-2
8,13,20,9,3,25,0.540954095409541,-0.2384547545382624,2.125,10170.370000000003,13-20-9-3
9,13,20,9,4,23,0.5355535553555355,-0.2176930000000001,2.8333333333333335,10725.130000000001,13-20-9-4
10,13,20,11,1,28,0.5778577857785778,-0.20599289268206913,2.111111111111111,11759.550000000008,13-20-11-1
11,13,20,11,2,28,0.5760576057605761,-0.21849691814151326,2.111111111111111,10553.155000000002,13-20-11-2
12,13,20,11,3,25,0.5346534653465347,-0.21400443179464118,1.7777777777777777,10121.380000000005,13-20-11-3
13,13,20,11,4,23,0.5175517551755175,-0.23627499999999918,2.2857142857142856,10301.87000000001,13-20-11-4
14,13,22,3,1,30,0.5868586858685868,-0.18180402639279072,3.2857142857142856,12904.940000000002,13-22-3-1
15,13,22,3,2,29,0.5697569756975698,-0.2303416115222904,3.8333333333333335,11381.395000000006,13-22-3-2
16,13,22,3,3,24,0.5697569756975698,-0.16358890176622629,3.0,12231.839999999987,13-22-3-3
17,13,22,3,4,13,0.4977497749774977,-0.16269877722769138,3.3333333333333335,12809.724999999997,13-22-3-4
18,13,22,5,1,30,0.5778577857785778,-0.18327835925235234,2.75,12115.019999999999,13-22-5-1
19,13,22,5,2,29,0.5832583258325833,-0.17511989080889354,2.625,11855.275000000003,13-22-5-2
20,13,22,5,3,27,0.5670567056705671,-0.17815424575900735,3.5,12021.999999999996,13-22-5-3
21,13,22,5,4,20,0.44014401440144013,-0.13945761906950369,4.0,13011.024999999998,13-22-5-4
22,13,22,7,1,28,0.5688568856885688,-0.1865138803121969,2.111111111111111,11960.639999999996,13-22-7-1
23,13,22,7,2,27,0.5697569756975698,-0.16632192703663212,2.857142857142857,11431.479999999994,13-22-7-2
24,13,22,7,3,26,0.5679567956795679,-0.2043569881698807,2.7142857142857144,11239.449999999999,13-22-7-3
25,13,22,7,4,21,0.495949594959496,-0.20917265072738053,2.5,10689.57,13-22-7-4
26,13,22,9,1,28,0.5823582358235824,-0.1685290906369461,3.0,12112.95,13-22-9-1
27,13,22,9,2,27,0.5688568856885688,-0.17907667864645915,2.857142857142857,11046.359999999993,13-22-9-2
28,13,22,9,3,25,0.5481548154815482,-0.20551136812515927,2.125,10698.814999999991,13-22-9-3
29,13,22,9,4,22,0.5013501350135013,-0.21322505271443368,2.142857142857143,10263.150000000007,13-22-9-4
30,13,22,11,1,26,0.5895589558955896,-0.22243920428851785,2.7142857142857144,12015.790000000005,13-22-11-1
31,13,22,11,2,25,0.5814581458145814,-0.20102314980027414,2.5714285714285716,11639.709999999995,13-22-11-2
32,13,22,11,3,24,0.5589558955895589,-0.2087887356030416,2.4285714285714284,10987.869999999999,13-22-11-3
33,13,22,11,4,22,0.5238523852385238,-0.19753293824814672,3.4,10987.53000000001,13-22-11-4
34,13,25,3,1,30,0.5598559855985599,-0.1571530720314358,3.2857142857142856,12404.339999999995,13-25-3-1
35,13,25,3,2,27,0.5472547254725473,-0.22068592922662975,2.375,10476.77,13-25-3-2
36,13,25,3,3,18,0.49954995499549953,-0.1631916658445056,2.6,11456.419999999995,13-25-3-3
37,13,25,3,4,14,0.5733573357335734,-0.19039398439717548,3.6666666666666665,11530.820000000005,13-25-3-4
38,13,25,5,1,28,0.5760576057605761,-0.20143341027607672,2.5,12229.229999999989,13-25-5-1
39,13,25,5,2,28,0.5904590459045904,-0.19276131986690584,2.5,11825.645,13-25-5-2
40,13,25,5,3,25,0.5481548154815482,-0.206688086455897,2.5714285714285716,10498.86,13-25-5-3
41,13,25,5,4,21,0.5391539153915391,-0.21648146022843512,2.5,11041.670000000007,13-25-5-4
42,13,25,7,1,26,0.5751575157515751,-0.19193383521407814,2.7142857142857144,11892.104999999996,13-25-7-1
43,13,25,7,2,26,0.5814581458145814,-0.17009971851884173,2.7142857142857144,12011.824999999999,13-25-7-2
44,13,25,7,3,24,0.5661566156615662,-0.2238381942298257,2.0,10569.755000000003,13-25-7-3
45,13,25,7,4,20,0.5103510351035103,-0.22970099999999957,2.3333333333333335,10684.880000000001,13-25-7-4
46,13,25,9,1,25,0.5787578757875788,-0.19023723030859152,2.5714285714285716,12097.605000000003,13-25-9-1
47,13,25,9,2,25,0.5760576057605761,-0.21041247591624357,2.125,11162.840000000002,13-25-9-2
48,13,25,9,3,25,0.5706570657065707,-0.2289519999999994,2.125,10207.680000000008,13-25-9-3
49,13,25,9,4,21,0.5157515751575158,-0.24871099999999952,2.0,9838.300000000007,13-25-9-4
50,13,25,11,1,27,0.5994599459945995,-0.22207439905041204,1.7,11741.429999999998,13-25-11-1
51,13,25,11,2,26,0.5913591359135913,-0.23517714142307838,1.6,11063.589999999998,13-25-11-2
52,13,25,11,3,26,0.5931593159315932,-0.2400053414705521,1.6,10559.350000000008,13-25-11-3
53,13,25,11,4,24,0.54005400540054,-0.20376111594136578,1.6666666666666667,10422.910000000002,13-25-11-4
54,13,27,3,1,28,0.5661566156615662,-0.17530131425321616,2.5,12323.909999999994,13-27-3-1
55,13,27,3,2,26,0.5625562556255626,-0.18585385913692276,1.8888888888888888,11234.464999999995,13-27-3-2
56,13,27,3,3,17,0.5058505850585059,-0.21676758045292008,3.25,10587.579999999996,13-27-3-3
57,13,27,3,4,14,0.5508550855085509,-0.16188207852742492,3.6666666666666665,11395.640000000005,13-27-3-4
58,13,27,5,1,27,0.576957695769577,-0.18951556474505765,3.5,12026.650000000003,13-27-5-1
59,13,27,5,2,26,0.5841584158415841,-0.1785456027557554,3.3333333333333335,11865.184999999998,13-27-5-2
60,13,27,5,3,24,0.5355535553555355,-0.20879950000000017,1.6666666666666667,10071.865,13-27-5-3
61,13,27,5,4,18,0.48244824482448245,-0.24626899999999952,2.0,10225.740000000009,13-27-5-4
62,13,27,7,1,24,0.5922592259225923,-0.19610755209609043,2.0,12205.52999999999,13-27-7-1
63,13,27,7,2,24,0.594959495949595,-0.21523622310062085,2.0,11268.710000000005,13-27-7-2
64,13,27,7,3,23,0.5931593159315932,-0.23320960115419095,1.875,10648.22,13-27-7-3
65,13,27,7,4,19,0.504050405040504,-0.2432373161033028,2.1666666666666665,10499.09,13-27-7-4
66,13,27,9,1,27,0.5922592259225923,-0.2174698111333418,2.375,11941.91,13-27-9-1
67,13,27,9,2,25,0.594059405940594,-0.20975175429000814,2.5714285714285716,11853.149999999992,13-27-9-2
68,13,27,9,3,25,0.5895589558955896,-0.2265781069319184,2.125,11021.52,13-27-9-3
69,13,27,9,4,24,0.5364536453645364,-0.21702354808651333,2.0,10675.780000000002,13-27-9-4
70,13,27,11,1,25,0.6093609360936093,-0.20528597405031007,1.7777777777777777,12226.965,13-27-11-1
71,13,27,11,2,25,0.6048604860486049,-0.23215483363545528,1.7777777777777777,11245.974999999995,13-27-11-2
72,13,27,11,3,24,0.6012601260126013,-0.2217034008862202,2.0,11152.09,13-27-11-3
73,13,27,11,4,22,0.549054905490549,-0.21091312819463012,2.142857142857143,10613.029999999999,13-27-11-4
