,fast,slow,sig,delay,numSell,exposure,drawdown,winLoss,value,zzz
7,11,12,11,2,13,0.592050209,-0.07666548,12,14310.54,11-12-11-2
44,13,14,9,1,13,0.585774059,-0.08408547,12,14302.23,13-14-9-1
60,9,12,9,3,12,0.571129707,-0.052142971,inf,14191.58,9-12-9-3
30,9,17,3,3,11,0.445606695,-0.050376972,10,14137.54,9-17-3-3
77,9,14,7,4,10,0.512552301,-0.052056647,inf,14127.64,9-14-7-4
2,9,14,9,3,12,0.592050209,-0.052052168,11,14088.95,9-14-9-3
23,11,14,9,2,13,0.59623431,-0.08584947,12,14060.82,11-14-9-2
39,11,16,7,2,13,0.594142259,-0.08584947,12,14016.96,11-16-7-2
36,11,16,5,3,13,0.562761506,-0.07666548,5.5,14016.85,11-16-5-3
21,11,14,7,4,5,0.646443515,-0.058189913,inf,14009.36,11-14-7-4
51,11,19,3,2,13,0.564853556,-0.08850666,12,13929.24,11-19-3-2
72,9,14,5,3,12,0.569037657,-0.058313529,inf,13893.46,9-14-5-3
61,9,12,9,4,8,0.606694561,-0.052299078,inf,13879.59,9-12-9-4
8,11,12,11,3,12,0.623430962,-0.058189913,11,13868.95,11-12-11-3
42,11,16,9,1,13,0.592050209,-0.08408547,12,13831.77,11-16-9-1
60,13,17,7,1,13,0.612970711,-0.08850666,12,13792.98,13-17-7-1
22,9,15,9,3,11,0.571129707,-0.052018273,inf,13760.84,9-15-9-3
42,13,14,7,3,10,0.435146444,-0.056308549,9,13710.48,13-14-7-3
52,13,17,3,1,14,0.579497908,-0.08584947,13,13704.46,13-17-3-1
42,9,17,9,3,11,0.493723849,-0.052296651,10,13680.15,9-17-9-3
37,13,14,5,2,14,0.592050209,-0.08584947,6,13678.08,13-14-5-2
77,11,12,7,2,15,0.581589958,-0.08584947,4,13675.7,11-12-7-2
64,9,12,11,3,11,0.594142259,-0.052168565,inf,13652.45,9-12-11-3
56,13,17,5,1,13,0.592050209,-0.08850666,12,13637.64,13-17-5-1
65,9,12,11,4,8,0.458158996,-0.052265829,inf,13622.55,9-12-11-4
35,11,16,5,2,14,0.587866109,-0.08584947,6,13614.57,11-16-5-2
20,11,14,7,3,11,0.548117155,-0.07666548,10,13607.63,11-14-7-3
50,11,19,3,1,14,0.566945607,-0.08850666,13,13600.78,11-19-3-1
43,11,16,9,2,13,0.59623431,-0.08584947,12,13581.2,11-16-9-2
19,11,14,7,2,13,0.592050209,-0.08584947,12,13575.38,11-14-7-2
24,11,14,9,3,12,0.619246862,-0.07666548,5,13565.89,11-14-9-3
5,9,14,11,2,12,0.558577406,-0.08584947,11,13559.34,9-14-11-2
3,9,14,9,4,9,0.608786611,-0.052160678,inf,13556.71,9-14-9-4
76,9,14,7,3,11,0.539748954,-0.05209019,inf,13546.69,9-14-7-3
68,11,12,3,1,17,0.571129707,-0.08408547,7.5,13531.23,11-12-3-1
56,11,19,5,3,10,0.558577406,-0.058181104,9,13502.5,11-19-5-3
4,5,6,3,3,2,0.405857741,-0.040548494,inf,13492.15,5-6-3-3
41,13,14,7,2,13,0.610878661,-0.08584947,5.5,13482.05,13-14-7-2
45,9,10,11,4,6,0.525104603,-0.052106649,inf,13481.76,9-10-11-4
49,13,14,11,2,12,0.594142259,-0.058313529,5,13479.87,13-14-11-2
76,11,12,7,1,15,0.566945607,-0.08408547,4,13473.95,11-12-7-1
72,13,20,3,1,13,0.571129707,-0.08850666,12,13473.76,13-20-3-1
40,11,16,7,3,12,0.627615063,-0.07666548,11,13457.83,11-16-7-3
59,11,19,7,2,12,0.583682008,-0.08408547,5,13431.32,11-19-7-2
14,9,15,5,3,11,0.575313808,-0.058313529,inf,13430.41,9-15-5-3
25,9,15,11,2,12,0.566945607,-0.08584947,11,13421.3,9-15-11-2
41,9,17,9,2,12,0.575313808,-0.08584947,5,13406.5,9-17-9-2
45,13,14,9,2,13,0.619246862,-0.08584947,3.333333333,13403.98,13-14-9-2
74,7,13,7,3,14,0.518828452,-0.059713977,13,13401.35,7-13-7-3
26,11,14,11,1,12,0.560669456,-0.08408547,11,13391.88,11-14-11-1
76,13,20,5,1,12,0.585774059,-0.08850666,11,13388.97,13-20-5-1
1,9,14,9,2,13,0.592050209,-0.08584947,12,13380.02,9-14-9-2
24,9,15,11,1,13,0.537656904,-0.08408547,5.5,13366.75,9-15-11-1
74,11,21,5,1,13,0.573221757,-0.08850666,5.5,13356.83,11-21-5-1
22,11,14,9,1,14,0.558577406,-0.08408547,6,13349.79,11-14-9-1
68,9,14,3,3,9,0.472803347,-0.050330947,inf,13339.17,9-14-3-3
57,9,12,7,4,4,0.644351464,-0.052125596,inf,13334.89,9-12-7-4
75,11,21,5,2,12,0.619246862,-0.08850666,3,13323.375,11-21-5-2
53,13,17,3,2,12,0.5041841,-0.058313529,inf,13322.02,13-17-3-2
4,7,9,3,1,24,0.479079498,-0.060689659,2.428571429,13318.145,7-9-3-1
75,7,13,7,4,9,0.520920502,-0.052052477,inf,13317.65,7-13-7-4
21,9,15,9,2,13,0.585774059,-0.08584947,5.5,13316.57,9-15-9-2
57,13,17,5,2,13,0.59832636,-0.08850666,5.5,13314.48,13-17-5-2
38,11,16,7,1,14,0.564853556,-0.08408547,6,13297.34,11-16-7-1
38,13,14,5,3,6,0.587866109,-0.050312111,inf,13287.76,13-14-5-3
45,11,16,9,4,8,0.640167364,-0.051991684,inf,13279.355,11-16-9-4
7,11,21,9,4,9,0.621338912,-0.052285743,inf,13274.645,11-21-9-4
4,9,14,11,1,13,0.533472803,-0.08408547,5.5,13274,9-14-11-1
54,11,19,5,1,14,0.573221757,-0.08850666,6,13273.97,11-19-5-1
46,13,14,9,3,11,0.537656904,-0.059312232,4.5,13268.46,13-14-9-3
69,11,19,11,4,9,0.562761506,-0.052092005,inf,13256.185,11-19-11-4
38,9,17,7,3,11,0.60041841,-0.058313529,inf,13252.99,9-17-7-3
59,9,12,9,2,13,0.587866109,-0.08584947,5.5,13252.81,9-12-9-2
9,11,12,11,4,8,0.548117155,-0.052813784,7,13249.24,11-12-11-4
2,11,12,9,1,14,0.541841004,-0.08408547,6,13244.54,11-12-9-1
58,11,19,7,1,13,0.564853556,-0.08850666,5.5,13234.49,11-19-7-1
55,11,19,5,2,13,0.589958159,-0.08408547,3.333333333,13233.61,11-19-5-2
48,9,12,3,3,11,0.571129707,-0.08408547,10,13232.29,9-12-3-3
6,11,12,11,1,14,0.543933054,-0.08584947,6,13222.37,11-12-11-1
27,3,4,5,4,1,0.384937238,-0.061495594,inf,13205.82,3-4-5-4
48,13,14,11,1,12,0.585774059,-0.08408547,3,13199.38,13-14-11-1
52,11,19,3,3,9,0.372384937,-0.028163848,inf,13184.2,11-19-3-3
61,9,19,9,2,12,0.577405858,-0.08584947,5,13175.11,9-19-9-2
47,9,17,11,4,8,0.523012552,-0.052296024,inf,13173.78,9-17-11-4
62,9,19,9,3,11,0.489539749,-0.052058934,10,13172.16,9-19-9-3
40,13,14,7,1,14,0.571129707,-0.08408547,6,13171.15,13-14-7-1
23,9,15,9,4,9,0.564853556,-0.052238343,8,13170.16,9-15-9-4
44,9,17,11,1,12,0.552301255,-0.08408547,11,13160.37,9-17-11-1
40,9,10,9,3,9,0.552301255,-0.052303184,inf,13159.95,9-10-9-3
43,13,14,7,4,4,0.349372385,-0.061265381,inf,13145.91,13-14-7-4
3,11,12,9,2,13,0.554393305,-0.08584947,5.5,13137.46,11-12-9-2
45,9,17,11,2,12,0.566945607,-0.08584947,5,13136.77,9-17-11-2
40,9,17,9,1,13,0.543933054,-0.08408547,5.5,13124.36,9-17-9-1
6,9,14,11,3,11,0.581589958,-0.07666548,4.5,13124.3,9-14-11-3
34,13,25,3,1,11,0.541841004,-0.08850666,10,13119.8,13-25-3-1
70,7,8,7,1,18,0.525104603,-0.08850666,8,13109.47,7-8-7-1
16,11,23,5,1,12,0.577405858,-0.08850666,11,13106.22,11-23-5-1
13,11,23,3,2,11,0.577405858,-0.08850666,2.666666667,13105.875,11-23-3-2
63,9,12,11,2,13,0.585774059,-0.08584947,5.5,13102.43,9-12-11-2
17,9,15,7,2,13,0.571129707,-0.08584947,5.5,13100.04,9-15-7-2
36,13,25,3,3,8,0.60460251,-0.08850666,7,13090.96,13-25-3-3
73,9,14,5,4,5,0.550209205,-0.041532915,inf,13089.45,9-14-5-4
1,11,21,7,2,13,0.585774059,-0.08408547,5.5,13082.43,11-21-7-2
62,11,19,9,1,12,0.587866109,-0.08850666,5,13079.68,11-19-9-1
18,9,15,7,3,11,0.523012552,-0.052118863,inf,13079.18,9-15-7-3
15,11,14,5,2,14,0.59832636,-0.08408547,6,13069.04,11-14-5-2
71,11,21,3,2,11,0.514644351,-0.08850666,4.5,13062.67,11-21-3-2
23,7,15,11,2,13,0.523012552,-0.08408547,12,13060.93,7-15-11-2
66,9,19,11,3,10,0.527196653,-0.052148419,9,13057.405,9-19-11-3
77,13,20,5,2,12,0.60460251,-0.08850666,5,13053.66,13-20-5-2
56,9,12,7,3,12,0.648535565,-0.08584947,11,13049.265,9-12-7-3
54,13,17,3,3,9,0.577405858,-0.058181104,inf,13041.44,13-17-3-3
30,11,16,3,1,15,0.562761506,-0.08850666,6.5,13027.91,11-16-3-1
44,9,10,11,3,10,0.541841004,-0.05210434,inf,13024.56,9-10-11-3
1,11,12,7,4,6,0.512552301,-0.088344264,5,13020.87,11-12-7-4
60,11,19,7,3,10,0.617154812,-0.08584947,9,13019.89,11-19-7-3
18,11,14,7,1,14,0.558577406,-0.08408547,6,13019.35,11-14-7-1
57,9,19,7,2,12,0.541841004,-0.08408547,5,13015.52,9-19-7-2
29,9,17,3,2,15,0.520920502,-0.08408547,6.5,13014.59,9-17-3-2
14,13,22,3,1,12,0.575313808,-0.08850666,11,13006.46,13-22-3-1
22,7,15,11,1,13,0.523012552,-0.08850666,12,12997.38,7-15-11-1
22,5,8,3,1,26,0.479079498,-0.037248779,3.333333333,12991.21,5-8-3-1
61,13,17,7,2,13,0.606694561,-0.08850666,5.5,12988.41,13-17-7-2
10,9,15,3,3,9,0.4958159,-0.05032312,inf,12980.65,9-15-3-3
0,11,12,7,3,11,0.535564854,-0.07666548,4.5,12973.69,11-12-7-3
2,7,13,11,1,14,0.543933054,-0.08850666,13,12971.79,7-13-11-1
7,9,14,11,4,8,0.552301255,-0.056221966,inf,12958.16,9-14-11-4
37,9,17,7,2,13,0.552301255,-0.08584947,5.5,12943.69,9-17-7-2
36,13,14,5,1,15,0.560669456,-0.08408547,6.5,12940.99,13-14-5-1
50,13,14,11,3,12,0.566945607,-0.056637535,3,12939.86,13-14-11-3
60,9,19,9,1,13,0.550209205,-0.08408547,5.5,12935.26,9-19-9-1
9,13,20,9,4,8,0.682008368,-0.08850666,7,12928.89,13-20-9-4
62,9,12,11,1,14,0.564853556,-0.08408547,6,12926.35,9-12-11-1
71,13,17,11,4,7,0.548117155,-0.052300308,inf,12923.46,13-17-11-4
63,11,19,9,2,11,0.612970711,-0.08408547,4.5,12922.355,11-19-9-2
18,7,15,9,1,14,0.539748954,-0.08850666,6,12917,7-15-9-1
76,11,21,5,3,9,0.558577406,-0.08408547,8,12915.4,11-21-5-3
35,9,10,7,2,14,0.60041841,-0.08408547,6,12911.45,9-10-7-2
70,11,12,3,3,4,0.543933054,-0.052084645,inf,12903.5,11-12-3-3
53,9,19,5,2,13,0.556485356,-0.08408547,5.5,12902.28,9-19-5-2
29,13,22,9,4,9,0.629707113,-0.08850666,8,12898.32,13-22-9-4
65,11,19,9,4,9,0.59623431,-0.056338459,8,12893.28,11-19-9-4
25,11,14,9,4,9,0.610878661,-0.059151185,8,12891.17,11-14-9-4
64,13,17,9,1,12,0.589958159,-0.08850666,3,12882.62,13-17-9-1
49,9,19,3,2,13,0.537656904,-0.08408547,5.5,12872.38,9-19-3-2
67,9,19,11,4,8,0.474895397,-0.052155018,inf,12871.86,9-19-11-4
12,5,6,7,3,5,0.617154812,-0.050534649,inf,12870.87,5-6-7-3
3,7,13,11,2,14,0.550209205,-0.08408547,6,12870.59,7-13-11-2
27,11,14,11,2,11,0.579497908,-0.08584947,10,12868.31,11-14-11-2
66,9,14,3,1,16,0.539748954,-0.08850666,7,12862.59,9-14-3-1
14,11,14,5,1,15,0.566945607,-0.08850666,4,12861.66,11-14-5-1
46,9,12,3,1,19,0.546025105,-0.08850666,2.8,12861,9-12-3-1
3,5,6,3,2,13,0.376569038,-0.04041633,3.333333333,12857.8246,5-6-3-2
2,5,6,3,1,32,0.430962343,-0.040081697,3.571428571,12853.98,5-6-3-1
44,7,12,3,1,18,0.533472803,-0.08850666,8,12852.98,7-12-3-1
11,11,21,11,4,9,0.59832636,-0.07666548,8,12850.625,11-21-11-4
0,11,21,7,1,13,0.573221757,-0.08850666,5.5,12846.97,11-21-7-1
48,11,16,11,3,11,0.554393305,-0.052162857,4.5,12844.8,11-16-11-3
50,9,19,3,3,8,0.464435146,-0.058075595,inf,12838.78,9-19-3-3
22,7,9,11,3,11,0.489539749,-0.05228674,10,12837.14,7-9-11-3
72,11,21,3,3,7,0.336820084,-0.028163848,6,12835.69,11-21-3-3
54,13,27,3,1,10,0.485355649,-0.08850666,9,12835.3,13-27-3-1
2,11,21,7,3,12,0.562761506,-0.052286056,11,12829.51,11-21-7-3
8,11,21,11,1,11,0.537656904,-0.08850666,2.666666667,12819.53,11-21-11-1
56,3,5,11,1,17,0.518828452,-0.07666548,7.5,12819.27,3-5-11-1
58,9,19,7,3,10,0.546025105,-0.08584947,9,12814.29,9-19-7-3
5,7,13,11,4,7,0.564853556,-0.052224815,inf,12810.23,7-13-11-4
20,7,15,9,3,13,0.564853556,-0.058313529,12,12799.62,7-15-9-3
17,11,23,5,2,12,0.587866109,-0.08850666,3,12798.83,11-23-5-2
51,13,14,11,4,6,0.569037657,-0.057035472,inf,12792.675,13-14-11-4
26,9,15,11,3,11,0.585774059,-0.07666548,4.5,12792.57,9-15-11-3
54,9,19,5,3,10,0.569037657,-0.06311951,inf,12791.3,9-19-5-3
8,9,15,3,1,15,0.564853556,-0.08850666,6.5,12789.91,9-15-3-1
0,9,14,9,1,14,0.564853556,-0.08408547,6,12787,9-14-9-1
66,7,8,5,1,20,0.491631799,-0.082381288,4,12786.02,7-8-5-1
13,13,20,11,4,9,0.642259414,-0.08850666,8,12782.38,13-20-11-4
41,11,16,7,4,8,0.583682008,-0.056232267,7,12776.06,11-16-7-4
34,11,16,5,1,15,0.564853556,-0.08408547,6.5,12769.65,11-16-5-1
2,13,20,7,1,12,0.594142259,-0.08850666,3,12767.31,13-20-7-1
37,11,16,5,4,6,0.4958159,-0.050465491,5,12764.62,11-16-5-4
11,9,15,3,4,4,0.468619247,-0.050480252,inf,12761.3,9-15-3-4
16,13,22,3,3,7,0.755230126,-0.08850666,6,12759.23,13-22-3-3
73,11,12,5,2,14,0.514644351,-0.08850666,6,12755.7,11-12-5-2
0,13,20,5,3,11,0.642259414,-0.08850666,4.5,12750.41,13-20-5-3
20,9,15,9,1,14,0.558577406,-0.08408547,6,12743.49,9-15-9-1
73,13,20,3,2,13,0.566945607,-0.07666548,3.333333333,12743.17,13-20-3-2
28,11,14,11,3,11,0.606694561,-0.07666548,4.5,12740.71,11-14-11-3
70,11,21,3,1,13,0.552301255,-0.08850666,12,12738.45,11-21-3-1
47,9,12,3,2,16,0.523012552,-0.08850666,7,12734.29,9-12-3-2
58,9,12,9,1,14,0.558577406,-0.08408547,6,12734.11,9-12-9-1
34,9,17,5,3,10,0.533472803,-0.058313529,inf,12733.83,9-17-5-3
20,11,23,7,1,11,0.556485356,-0.08850666,4.5,12719.04,11-23-7-1
76,3,6,11,1,17,0.491631799,-0.07666548,7.5,12712.07,3-6-11-1
36,9,17,7,1,14,0.541841004,-0.08408547,6,12703.38,9-17-7-1
4,11,12,9,3,12,0.531380753,-0.077831711,5,12692.61,11-12-9-3
68,7,8,5,3,5,0.382845188,-0.040636277,inf,12688.58,7-8-5-3
74,11,12,5,3,10,0.510460251,-0.08408547,9,12687.6,11-12-5-3
12,13,20,11,3,9,0.617154812,-0.08850666,8,12684.3,13-20-11-3
21,11,23,7,2,11,0.556485356,-0.08408547,4.5,12679.215,11-23-7-2
62,13,17,7,3,12,0.621338912,-0.058181101,5,12677.92,13-17-7-3
32,13,22,11,3,9,0.60251046,-0.08850666,8,12676.2,13-22-11-3
7,5,6,5,2,15,0.556485356,-0.057487993,14,12675.5138,5-6-5-2
17,11,14,5,4,3,0.60041841,-0.07666548,inf,12674.47,11-14-5-4
39,13,14,5,4,3,0.629707113,-0.061157872,inf,12673.99,13-14-5-4
44,11,16,9,3,12,0.642259414,-0.07666548,3,12667.61,11-16-9-3
27,9,15,11,4,9,0.523012552,-0.056315338,inf,12666.43,9-15-11-4
38,5,8,11,1,15,0.516736402,-0.08850666,4,12663.84,5-8-11-1
56,13,27,3,3,8,0.437238494,-0.08850666,7,12661.4,13-27-3-3
19,7,15,9,2,14,0.543933054,-0.08408547,3.666666667,12659.74,7-15-9-2
28,11,23,11,1,11,0.512552301,-0.08850666,1.75,12657.88,11-23-11-1
50,9,12,5,1,17,0.539748954,-0.08850666,3.25,12648.03,9-12-5-1
64,7,13,3,1,16,0.543933054,-0.08850666,7,12647.72,7-13-3-1
18,13,22,5,1,12,0.587866109,-0.08850666,2,12641.43,13-22-5-1
64,9,19,11,1,11,0.539748954,-0.08408547,4.5,12634.64,9-19-11-1
27,9,10,3,2,14,0.525104603,-0.08408547,3.666666667,12631.09,9-10-3-2
16,9,15,7,1,14,0.569037657,-0.08408547,6,12629.2,9-15-7-1
56,9,19,7,1,13,0.527196653,-0.08850666,5.5,12626.59,9-19-7-1
17,7,15,7,4,7,0.491631799,-0.061408224,inf,12619.265,7-15-7-4
16,11,14,5,3,10,0.650627615,-0.08584947,4,12614.16,11-14-5-3
24,7,15,11,3,12,0.556485356,-0.08584947,11,12609.59,7-15-11-3
75,9,14,7,2,14,0.571129707,-0.08584947,2.5,12602.08,9-14-7-2
10,11,21,11,3,9,0.589958159,-0.08584947,8,12598.25,11-21-11-3
6,5,6,5,1,26,0.472803347,-0.054635981,3.333333333,12596.91,5-6-5-1
52,9,19,5,1,14,0.546025105,-0.08850666,6,12596.91,9-19-5-1
20,13,22,5,3,11,0.635983264,-0.08850666,4.5,12591.71,13-22-5-3
50,5,10,7,1,18,0.548117155,-0.08850666,5,12591.5948,5-10-7-1
70,13,17,11,3,9,0.594142259,-0.058181101,inf,12584.53,13-17-11-3
66,13,17,9,3,10,0.615062762,-0.058181101,9,12576.07,13-17-9-3
26,5,8,5,1,21,0.493723849,-0.062840701,3.2,12572.31,5-8-5-1
67,13,17,9,4,7,0.587866109,-0.052318269,inf,12572.185,13-17-9-4
42,3,5,3,3,3,0.587866109,-0.050282143,inf,12572.01,3-5-3-3
65,9,19,11,2,11,0.556485356,-0.08584947,4.5,12561.66,9-19-11-2
74,7,8,9,1,16,0.518828452,-0.08850666,3,12560.9,7-8-9-1
10,11,14,3,1,16,0.550209205,-0.08850666,3,12554.46,11-14-3-1
32,13,14,3,1,16,0.571129707,-0.08408547,2.2,12551.92,13-14-3-1
13,9,15,5,2,14,0.556485356,-0.08408547,3.666666667,12551.46,9-15-5-2
73,7,13,7,2,14,0.569037657,-0.08408547,6,12537.08,7-13-7-2
31,11,23,11,4,8,0.539748954,-0.07666548,7,12532.07,11-23-11-4
28,9,17,3,1,15,0.548117155,-0.08850666,4,12527.82,9-17-3-1
10,13,20,11,1,10,0.550209205,-0.08850666,4,12527.71,13-20-11-1
46,9,17,11,3,11,0.541841004,-0.07666548,4.5,12525.81,9-17-11-3
33,13,22,11,4,9,0.621338912,-0.08850666,8,12522.605,13-22-11-4
33,13,14,3,2,13,0.466527197,-0.08584947,3.333333333,12521.24,13-14-3-2
62,7,8,3,1,23,0.468619247,-0.046626668,3.6,12513.76,7-8-3-1
42,9,10,11,1,14,0.548117155,-0.08408547,6,12511.9,9-10-11-1
18,5,6,11,1,15,0.531380753,-0.08850666,6.5,12507.2,5-6-11-1
54,5,10,9,1,15,0.516736402,-0.08850666,4,12498.81,5-10-9-1
12,11,23,3,1,12,0.546025105,-0.08850666,11,12497.05,11-23-3-1
14,5,6,9,1,16,0.508368201,-0.060661428,4.333333333,12490.2849,5-6-9-1
69,13,17,11,2,11,0.552301255,-0.058181104,2.666666667,12490,13-17-11-2
28,9,10,3,3,5,0.550209205,-0.06144616,inf,12488.59,9-10-3-3
72,11,12,5,1,15,0.543933054,-0.08850666,4,12484.45,11-12-5-1
66,11,19,11,1,11,0.562761506,-0.08850666,2.666666667,12483.05,11-19-11-1
24,7,10,3,1,19,0.518828452,-0.08850666,5.333333333,12478.94,7-10-3-1
46,7,12,3,3,7,0.445606695,-0.055218261,6,12477.64,7-12-3-3
43,9,17,9,4,8,0.453974895,-0.052195055,inf,12471.9,9-17-9-4
47,11,16,11,2,11,0.585774059,-0.07666548,4.5,12470.3,11-16-11-2
26,9,10,3,1,20,0.525104603,-0.08850666,4,12469.2351,9-10-3-1
32,11,16,3,3,9,0.518828452,-0.08584947,8,12464.19,11-16-3-3
55,13,27,3,2,8,0.435146444,-0.08850666,7,12462.08,13-27-3-2
4,13,20,7,3,10,0.663179916,-0.08850666,4,12453.64,13-20-7-3
15,13,22,3,2,11,0.550209205,-0.08850666,4.5,12452.27,13-22-3-2
51,9,12,5,2,15,0.537656904,-0.08408547,2,12448.72,9-12-5-2
19,13,22,5,2,11,0.612970711,-0.08850666,4.5,12448.2,13-22-5-2
46,11,16,11,1,12,0.575313808,-0.08584947,2,12444.95,11-16-11-1
65,13,17,9,2,11,0.592050209,-0.058181104,4.5,12443.19,13-17-9-2
19,9,15,7,4,8,0.428870293,-0.052056647,inf,12439.98,9-15-7-4
31,9,10,5,2,14,0.518828452,-0.08408547,6,12430.01,9-10-5-2
58,13,27,5,1,10,0.489539749,-0.08850666,2.333333333,12429.11,13-27-5-1
39,5,8,11,2,13,0.531380753,-0.08850666,5.5,12427.34,5-8-11-2
30,13,22,11,1,9,0.571129707,-0.08850666,8,12427.18,13-22-11-1
5,11,12,9,4,7,0.420502092,-0.053008878,6,12425.26,11-12-9-4
71,7,13,5,4,6,0.4958159,-0.052263948,5,12423.29,7-13-5-4
48,9,19,3,1,15,0.529288703,-0.08850666,4,12412.53,9-19-3-1
33,9,17,5,2,14,0.537656904,-0.08408547,3.666666667,12406.27,9-17-5-2
34,5,8,9,1,16,0.531380753,-0.08850666,7,12404.97,5-8-9-1
43,9,10,11,2,14,0.543933054,-0.08584947,3.666666667,12403.47,9-10-11-2
60,7,12,11,1,14,0.510460251,-0.08850666,3.666666667,12398.4,7-12-11-1
76,7,13,9,1,15,0.518828452,-0.08850666,2.75,12391.05,7-13-9-1
4,11,21,9,1,12,0.583682008,-0.08850666,2,12390.73,11-21-9-1
24,11,23,9,1,11,0.525104603,-0.08850666,1.75,12389.35,11-23-9-1
26,11,23,9,3,9,0.562761506,-0.08584947,8,12385.7,11-23-9-3
1,7,13,9,4,6,0.479079498,-0.052263126,inf,12385.69,7-13-9-4
21,7,15,9,4,7,0.485355649,-0.052175417,inf,12379.41,7-15-9-4
62,13,27,7,1,10,0.5041841,-0.08850666,2.333333333,12367.81,13-27-7-1
6,7,9,3,3,6,0.489539749,-0.052099368,5,12365.37,7-9-3-3
29,11,14,11,4,9,0.566945607,-0.058189913,3.5,12356.96,11-14-11-4
74,9,14,7,1,15,0.562761506,-0.08408547,4,12356.43,9-14-7-1
23,11,23,7,4,6,0.466527197,-0.052248994,inf,12355.67,11-23-7-4
28,13,22,9,3,9,0.608786611,-0.08850666,8,12354.165,13-22-9-3
14,7,9,7,3,8,0.40376569,-0.050534692,inf,12349.16,7-9-7-3
26,13,22,9,1,11,0.531380753,-0.08850666,2.666666667,12347.81,13-22-9-1
52,13,25,11,3,9,0.535564854,-0.08850666,8,12339.215,13-25-11-3
56,7,12,9,1,15,0.523012552,-0.08850666,2.75,12338.55,7-12-9-1
76,7,8,9,3,7,0.550209205,-0.08408547,6,12336.27,7-8-9-3
9,11,21,11,2,10,0.550209205,-0.08408547,4,12333.945,11-21-11-2
51,5,10,7,2,17,0.564853556,-0.08850666,3.25,12333.93,5-10-7-2
12,7,9,7,1,18,0.523012552,-0.08850666,3.5,12333.17,7-9-7-1
38,9,10,9,1,14,0.556485356,-0.08408547,6,12332.37,9-10-9-1
3,11,21,7,4,8,0.449790795,-0.052077114,7,12323.03,11-21-7-4
38,13,25,5,1,11,0.520920502,-0.08850666,1.75,12318.41,13-25-5-1
18,11,23,5,3,10,0.581589958,-0.08408547,9,12316.42,11-23-5-3
55,9,19,5,4,7,0.458158996,-0.052148542,inf,12315.8,9-19-5-4
30,5,8,7,1,19,0.5,-0.08850666,5.333333333,12304.655,5-8-7-1
22,13,22,7,1,11,0.575313808,-0.08850666,2.666666667,12303.48,13-22-7-1
55,9,12,7,2,14,0.554393305,-0.08408547,3.666666667,12302.04,9-12-7-2
24,13,22,7,3,9,0.625523013,-0.08850666,8,12301.28,13-22-7-3
31,13,22,11,2,9,0.581589958,-0.08850666,8,12300.245,13-22-11-2
0,7,8,11,1,15,0.514644351,-0.08850666,4,12296.83,7-8-11-1
25,7,15,11,4,7,0.418410042,-0.05210943,inf,12295.35,7-15-11-4
41,9,10,9,4,3,0.416317992,-0.050538331,inf,12294.87,9-10-9-4
59,9,19,7,4,7,0.449790795,-0.052216208,inf,12288.33,9-19-7-4
39,9,10,9,2,14,0.558577406,-0.08584947,3.666666667,12279.98,9-10-9-2
43,7,10,11,4,6,0.571129707,-0.052877039,5,12279.33,7-10-11-4
14,7,15,7,1,15,0.5,-0.08850666,2.75,12279.29,7-15-7-1
48,7,12,5,1,17,0.535564854,-0.08850666,3.25,12271.24,7-12-5-1
69,3,6,7,2,16,0.506276151,-0.058313529,7,12270.18,3-6-7-2
27,13,22,9,2,10,0.546025105,-0.08850666,4,12268.47,13-22-9-2
68,11,19,11,3,9,0.615062762,-0.08584947,8,12266.72,11-19-11-3
49,11,16,11,4,7,0.49790795,-0.052318269,6,12266.535,11-16-11-4
46,13,25,9,1,9,0.510460251,-0.08850666,8,12265.59,13-25-9-1
42,13,25,7,1,11,0.527196653,-0.08850666,2.666666667,12265.12,13-25-7-1
69,9,14,3,4,4,0.635983264,-0.061402723,inf,12264.55,9-14-3-4
6,13,20,9,1,11,0.562761506,-0.08850666,2.666666667,12260.62,13-20-9-1
47,13,14,9,4,6,0.466527197,-0.052209087,inf,12256.025,13-14-9-4
68,13,17,11,1,11,0.571129707,-0.08584947,2.666666667,12254.2,13-17-11-1
23,3,4,3,4,1,0.732217573,-0.06147474,inf,12246.04,3-4-3-4
66,13,27,9,1,9,0.512552301,-0.08850666,8,12241.09,13-27-9-1
35,5,8,9,2,14,0.525104603,-0.08850666,6,12240.46,5-8-9-2
15,9,15,5,4,6,0.476987448,-0.050398599,inf,12236.37,9-15-5-4
67,13,27,9,2,9,0.5,-0.08850666,3.5,12232.59,13-27-9-2
0,7,13,9,3,12,0.520920502,-0.058313529,5,12230.29,7-13-9-3
72,13,27,11,3,8,0.5,-0.08850666,7,12228.75,13-27-11-3
33,11,16,3,4,6,0.263598326,-0.050440622,inf,12227.7,11-16-3-4
57,11,19,5,4,7,0.380753138,-0.040541834,6,12219.06,11-19-5-4
44,13,25,7,3,8,0.531380753,-0.08850666,7,12215.43,13-25-7-3
14,11,23,3,3,5,0.334728033,-0.05221071,inf,12212.62,11-23-3-3
47,13,25,9,2,9,0.508368201,-0.08850666,3.5,12210.07,13-25-9-2
42,7,10,11,3,12,0.541841004,-0.058313529,5,12204.76,7-10-11-3
58,13,17,5,3,9,0.558577406,-0.08408547,3.5,12204.67,13-17-5-3
9,9,15,3,2,14,0.510460251,-0.08408547,6,12204.52,9-15-3-2
42,5,10,3,1,21,0.451882845,-0.058313529,3.2,12197.77,5-10-3-1
8,7,9,5,1,19,0.49790795,-0.08850666,5.333333333,12196.65,7-9-5-1
4,7,13,11,3,13,0.587866109,-0.08584947,5.5,12193.93,7-13-11-3
40,7,10,11,1,15,0.520920502,-0.08850666,2.75,12192.99,7-10-11-1
51,13,25,11,2,9,0.516736402,-0.08850666,3.5,12182.45,13-25-11-2
6,7,15,3,1,16,0.512552301,-0.08850666,4.333333333,12176.67,7-15-3-1
64,11,19,9,3,11,0.640167364,-0.08584947,2.666666667,12172.53,11-19-9-3
59,13,27,5,2,8,0.468619247,-0.08850666,3,12171.83,13-27-5-2
77,3,6,11,2,11,0.546025105,-0.07666548,4.5,12171.41,3-6-11-2
53,11,19,3,4,5,0.307531381,-0.040430405,4,12171.26,11-19-3-4
54,9,12,7,1,15,0.556485356,-0.08850666,4,12168.82,9-12-7-1
7,7,15,3,2,13,0.529288703,-0.08850666,5.5,12166.86,7-15-3-2
15,7,9,7,4,5,0.481171548,-0.050449858,inf,12162.05,7-9-7-4
52,3,5,9,1,20,0.476987448,-0.07666548,5.666666667,12160.635,3-5-9-1
71,13,27,11,2,8,0.481171548,-0.08850666,3,12160.31,13-27-11-2
32,9,17,5,1,15,0.537656904,-0.08850666,2.75,12156.81,9-17-5-1
8,13,20,9,3,9,0.631799163,-0.08850666,8,12156.68,13-20-9-3
43,13,25,7,2,9,0.537656904,-0.08850666,3.5,12154.04,13-25-7-2
59,5,10,11,2,14,0.508368201,-0.08850666,6,12146.79,5-10-11-2
69,11,12,3,2,13,0.5,-0.08584947,3.333333333,12145.67,11-12-3-2
38,7,10,9,3,11,0.464435146,-0.071338904,4.5,12145.27,7-10-9-3
11,13,20,11,2,9,0.579497908,-0.08850666,8,12144.685,13-20-11-2
57,7,12,9,2,15,0.527196653,-0.08408547,4,12142.15,7-12-9-2
5,13,20,7,4,7,0.707112971,-0.08850666,6,12141.27,13-20-7-4
35,13,14,3,4,2,0.5,-0.05032285,inf,12128.86,13-14-3-4
30,9,10,5,1,19,0.527196653,-0.08850666,3.75,12123.96,9-10-5-1
68,7,13,5,1,17,0.523012552,-0.08850666,1.833333333,12121.45,7-13-5-1
72,3,6,9,1,18,0.479079498,-0.07666548,8,12121.28,3-6-9-1
22,11,23,7,3,9,0.612970711,-0.08584947,8,12118.14,11-23-7-3
56,5,10,9,3,9,0.527196653,-0.053119892,8,12116.54,5-10-9-3
48,13,25,9,3,8,0.50209205,-0.08850666,7,12112.31,13-25-9-3
50,13,25,11,1,9,0.512552301,-0.08850666,8,12107.465,13-25-11-1
20,7,9,11,1,15,0.512552301,-0.08850666,2.75,12107.22,7-9-11-1
3,13,20,7,2,11,0.617154812,-0.08850666,2.666666667,12101.64,13-20-7-2
69,7,13,5,2,16,0.5041841,-0.08850666,2.2,12097.28,7-13-5-2
41,3,5,3,2,8,0.558577406,-0.040431279,7,12093.235,3-5-3-2
67,9,14,3,2,14,0.523012552,-0.08408547,6,12088.73,9-14-3-2
49,7,12,5,2,16,0.487447699,-0.08850666,2.2,12086.18,7-12-5-2
55,5,10,9,2,14,0.523012552,-0.08850666,6,12084.52,5-10-9-2
63,13,27,7,2,9,0.483263598,-0.08850666,3.5,12084.42,13-27-7-2
65,7,8,3,4,0,0,-0.050281098,inf,12084.11,7-8-3-4
28,7,10,5,1,19,0.508368201,-0.08850666,3.75,12081.36,7-10-5-1
35,13,25,3,2,10,0.516736402,-0.08850666,9,12080.16,13-25-3-2
63,9,19,9,4,7,0.422594142,-0.05206089,inf,12078.58,9-19-9-4
23,13,22,7,2,10,0.575313808,-0.08850666,4,12075.24,13-22-7-2
7,13,20,9,2,10,0.573221757,-0.08850666,4,12065.85,13-20-9-2
8,7,15,3,3,9,0.49790795,-0.058075595,8,12060.64,7-15-3-3
59,7,12,9,4,7,0.518828452,-0.052069916,inf,12060.42,7-12-9-4
5,11,21,9,2,11,0.606694561,-0.08408547,2.666666667,12057.655,11-21-9-2
39,9,17,7,4,8,0.364016736,-0.051982042,inf,12052.62,9-17-7-4
25,13,22,7,4,8,0.575313808,-0.08850666,7,12051.6,13-22-7-4
27,5,8,5,2,18,0.474895397,-0.056499553,5,12049.57,5-8-5-2
45,13,25,7,4,8,0.527196653,-0.08850666,3,12048.545,13-25-7-4
6,11,21,9,3,10,0.638075314,-0.08584947,4,12048.03,11-21-9-3
30,7,10,5,3,8,0.353556485,-0.053222595,7,12040.22,7-10-5-3
10,7,15,5,1,15,0.520920502,-0.08850666,2.75,12038.55,7-15-5-1
75,11,12,5,4,3,0.665271967,-0.08584947,2,12036.92,11-12-5-4
58,7,12,9,3,12,0.518828452,-0.058313529,5,12033.27,7-12-9-3
45,7,12,3,2,14,0.569037657,-0.08850666,6,12031.19,7-12-3-2
73,3,6,9,2,13,0.420502092,-0.07666548,5.5,12028.42,3-6-9-2
65,3,6,5,2,17,0.441422594,-0.036538986,3.25,12027.36,3-6-5-2
71,9,14,5,2,14,0.569037657,-0.08408547,3.666666667,12018.53,9-14-5-2
70,13,27,11,1,8,0.481171548,-0.08850666,7,12013.415,13-27-11-1
60,13,27,5,3,7,0.464435146,-0.08850666,6,12010.83,13-27-5-3
25,11,23,9,2,10,0.531380753,-0.08408547,2.333333333,12004.855,11-23-9-2
16,7,15,7,3,11,0.458158996,-0.052911491,4.5,12001.78,7-15-7-3
17,7,9,9,2,12,0.527196653,-0.08408547,5,12000.35,7-9-9-2
62,3,6,3,3,1,0.112970711,-0.050260001,inf,11998.2,3-6-3-3
53,9,12,5,4,4,0.571129707,-0.0521316,inf,11997.33,9-12-5-4
67,11,19,11,2,10,0.581589958,-0.08408547,4,11996.785,11-19-11-2
54,7,12,7,3,11,0.430962343,-0.061678117,4.5,11995.48,7-12-7-3
46,5,10,5,1,19,0.529288703,-0.08850666,3.75,11995.1352,5-10-5-1
64,3,6,5,1,28,0.483263598,-0.037543136,3.666666667,11993.28,3-6-5-1
36,9,10,7,3,7,0.4958159,-0.058313529,6,11990.39,9-10-7-3
58,5,10,11,1,15,0.512552301,-0.08850666,2.75,11985.06,5-10-11-1
32,7,10,7,1,17,0.5041841,-0.08850666,3.25,11983.26,7-10-7-1
23,5,8,3,2,14,0.449790795,-0.056769728,3.666666667,11974.23,5-8-3-2
70,7,13,5,3,11,0.581589958,-0.08408547,4.5,11971.99,7-13-5-3
52,7,12,7,1,16,0.525104603,-0.08850666,3,11966.24,7-12-7-1
72,7,13,7,1,15,0.541841004,-0.08850666,2.75,11961.77,7-13-7-1
72,7,8,7,3,5,0.414225941,-0.058075595,inf,11952.8,7-8-7-3
66,7,13,3,3,7,0.472803347,-0.054441875,6,11952.32,7-13-3-3
11,11,14,3,2,13,0.476987448,-0.08408547,5.5,11951.75,11-14-3-2
21,7,9,11,2,12,0.508368201,-0.08408547,5,11949.09,7-9-11-2
63,7,12,11,4,7,0.418410042,-0.052013295,inf,11945.56,7-12-11-4
37,5,8,9,4,4,0.59832636,-0.052175713,3,11942.69,5-8-9-4
34,9,10,7,1,15,0.571129707,-0.08850666,2.75,11942.62,9-10-7-1
60,5,10,11,3,10,0.510460251,-0.08408547,4,11939.81,5-10-11-3
18,7,9,9,3,9,0.539748954,-0.056115106,8,11936.88,7-9-9-3
12,9,15,5,1,15,0.543933054,-0.08850666,4,11933.79,9-15-5-1
63,13,17,7,4,6,0.474895397,-0.052066906,inf,11933.675,13-17-7-4
10,5,6,7,1,19,0.5041841,-0.0769081,2.8,11931.68,5-6-7-1
29,11,23,11,2,10,0.523012552,-0.08408547,2.333333333,11925.8,11-23-11-2
16,7,9,9,1,15,0.531380753,-0.08850666,2.75,11923.29,7-9-9-1
73,11,21,3,4,4,0.479079498,-0.061404603,inf,11922.825,11-21-3-4
48,3,5,7,1,22,0.462343096,-0.039710512,4.5,11921.58,3-5-7-1
20,3,4,3,1,34,0.5041841,-0.052739215,2.777777778,11915.265,3-4-3-1
61,7,12,11,2,14,0.508368201,-0.08408547,3.666666667,11907.24,7-12-11-2
64,13,27,7,3,7,0.456066946,-0.08850666,6,11906.9,13-27-7-3
68,13,27,9,3,9,0.523012552,-0.08850666,8,11898.87,13-27-9-3
68,3,6,7,1,19,0.485355649,-0.058075595,5.333333333,11895.52,3-6-7-1
28,3,4,7,1,21,0.491631799,-0.063047155,6,11893.28,3-4-7-1
26,3,4,5,3,2,0.410041841,-0.03371305,inf,11889.76,3-4-5-3
39,13,25,5,2,8,0.516736402,-0.08850666,3,11886.19,13-25-5-2
37,7,10,9,2,15,0.518828452,-0.08408547,4,11884.16,7-10-9-2
30,11,23,11,3,9,0.558577406,-0.08584947,8,11880.835,11-23-11-3
61,3,6,3,2,9,0.629707113,-0.056115106,2,11879.79,3-6-3-2
49,13,25,9,4,7,0.460251046,-0.08850666,6,11878.295,13-25-9-4
77,11,21,5,4,6,0.359832636,-0.0405121,inf,11868.18,11-21-5-4
61,11,19,7,4,9,0.587866109,-0.07666548,3.5,11866.23,11-19-7-4
49,3,5,7,2,14,0.525104603,-0.05213173,3.666666667,11862.625,3-5-7-2
66,3,6,5,3,2,0.366108787,-0.03371305,inf,11860.78,3-6-5-3
32,3,4,9,1,20,0.462343096,-0.07666548,5.666666667,11852.48,3-4-9-1
15,7,15,7,2,14,0.535564854,-0.08408547,3.666666667,11849.02,7-15-7-2
52,9,12,5,3,8,0.564853556,-0.061594282,3,11836.72,9-12-5-3
21,13,22,5,4,7,0.627615063,-0.08850666,2.5,11835.97,13-22-5-4
29,7,10,5,2,18,0.527196653,-0.08850666,2.6,11832.46,7-10-5-2
70,9,14,5,1,15,0.546025105,-0.08850666,4,11829.14,9-14-5-1
40,13,25,5,3,8,0.523012552,-0.08850666,7,11826.53,13-25-5-3
19,7,9,9,4,4,0.374476987,-0.050282467,inf,11820.32,7-9-9-4
50,7,12,5,3,8,0.541841004,-0.08408547,3,11816.38,7-12-5-3
53,13,25,11,4,8,0.512552301,-0.08850666,7,11809.04,13-25-11-4
41,7,10,11,2,14,0.546025105,-0.08408547,3.666666667,11806.84,7-10-11-2
36,3,4,11,1,17,0.453974895,-0.07666548,4.666666667,11796.3,3-4-11-1
13,7,9,7,2,16,0.531380753,-0.08850666,2.2,11794.49,7-9-7-2
55,13,17,3,4,3,0.460251046,-0.061470922,inf,11779.48,13-17-3-4
73,7,8,7,4,3,0.39958159,-0.061321279,inf,11778.56,7-8-7-4
31,11,16,3,2,13,0.466527197,-0.08408547,5.5,11776.63,11-16-3-2
63,3,6,3,4,0,0,-0.050487402,inf,11764.1,3-6-3-4
77,7,13,9,2,14,0.4958159,-0.08408547,2.5,11762.66,7-13-9-2
36,7,10,9,1,15,0.518828452,-0.08850666,2.75,11759.27,7-10-9-1
15,5,6,9,2,11,0.533472803,-0.058189913,4.5,11751.85,5-6-9-2
39,7,10,9,4,6,0.460251046,-0.052305061,5,11736.13,7-10-9-4
11,7,15,5,2,13,0.527196653,-0.08408547,3.333333333,11728.05,7-15-5-2
31,9,17,3,4,3,0.169456067,-0.05028611,inf,11719.53,9-17-3-4
71,7,8,7,2,13,0.629707113,-0.08850666,3.333333333,11718.52,7-8-7-2
1,13,20,5,4,8,0.592050209,-0.08850666,3,11716.52,13-20-5-4
34,7,10,7,3,8,0.453974895,-0.056115106,7,11710.93,7-10-7-3
12,11,14,3,3,7,0.322175732,-0.050308947,6,11703.71,11-14-3-3
24,5,8,3,3,4,0.546025105,-0.058181104,3,11696.32,5-8-3-3
62,7,12,11,3,11,0.525104603,-0.08584947,2.666666667,11693.54,7-12-11-3
65,7,13,3,2,14,0.562761506,-0.08850666,3.666666667,11691.32,7-13-3-2
19,11,23,5,4,6,0.271966527,-0.04040808,2,11689.09,11-23-5-4
12,7,15,5,3,10,0.512552301,-0.058075595,4,11687.33,7-15-5-3
44,3,5,5,1,29,0.445606695,-0.037543136,2.625,11673.245,3-5-5-1
24,3,4,5,1,28,0.460251046,-0.064242632,3,11661.335,3-4-5-1
22,3,4,3,3,2,0.40167364,-0.056115106,inf,11657.185,3-4-3-3
9,7,9,5,2,17,0.533472803,-0.08850666,2.4,11655.95,7-9-5-2
60,3,6,3,1,34,0.487447699,-0.044258724,1.833333333,11649.18,3-6-3-1
33,5,8,7,4,3,0.370292887,-0.061321279,inf,11640.78,5-8-7-4
33,7,10,7,2,15,0.483263598,-0.08408547,2,11639.64,7-10-7-2
25,3,4,5,2,7,0.387029289,-0.050298933,2.5,11629.32,3-4-5-2
34,13,14,3,3,3,0.387029289,-0.050464031,inf,11626.03,13-14-3-3
55,7,12,7,4,5,0.483263598,-0.052264237,4,11616.85,7-12-7-4
69,13,27,9,4,7,0.437238494,-0.08408547,6,11606.82,13-27-9-4
27,11,23,9,4,7,0.4958159,-0.07666548,6,11600.205,11-23-9-4
57,3,5,11,2,9,0.428870293,-0.07666548,8,11599.39,3-5-11-2
53,7,12,7,2,16,0.533472803,-0.08408547,3,11571.3,7-12-7-2
31,7,10,5,4,3,0.414225941,-0.061144112,inf,11564.08,7-10-5-4
2,7,8,11,3,7,0.412133891,-0.056115106,6,11564.07,7-8-11-3
19,5,6,11,2,11,0.564853556,-0.08850666,4.5,11563.96,5-6-11-2
75,7,8,9,2,13,0.575313808,-0.08850666,2.25,11541.19,7-8-9-2
35,9,17,5,4,7,0.294979079,-0.05226393,inf,11540.84,9-17-5-4
40,3,5,3,1,36,0.472803347,-0.04440649,2,11515.14,3-5-3-1
73,13,27,11,4,7,0.418410042,-0.08408547,6,11510.3,13-27-11-4
31,5,8,7,2,16,0.481171548,-0.08850666,4.333333333,11503.2,5-8-7-2
52,5,10,7,3,8,0.481171548,-0.058295835,7,11498.92,5-10-7-3
48,5,10,5,3,9,0.422594142,-0.08850666,8,11486.93,5-10-5-3
28,5,8,5,3,7,0.380753138,-0.054263594,2.5,11480.72,5-8-5-3
17,13,22,3,4,4,0.376569038,-0.08850666,3,11476.015,13-22-3-4
67,7,8,5,2,17,0.445606695,-0.082602205,1.833333333,11447.745,7-8-5-2
64,7,8,3,3,1,0.148535565,-0.050331889,inf,11436.75,7-8-3-3
8,5,6,5,3,5,0.336820084,-0.050427828,inf,11425.29,5-6-5-3
23,7,9,11,4,5,0.353556485,-0.052253935,4,11424.17,7-9-11-4
63,7,8,3,2,12,0.290794979,-0.074399478,2,11420.2,7-8-3-2
10,7,9,5,3,7,0.355648536,-0.055242243,6,11415.71,7-9-5-3
40,5,8,11,3,6,0.489539749,-0.058295835,5,11403.07,5-8-11-3
37,9,10,7,4,4,0.368200837,-0.052160561,3,11395.59,9-10-7-4
47,5,10,5,2,16,0.508368201,-0.08850666,4.333333333,11395.575,5-10-5-2
32,9,10,5,3,6,0.378661088,-0.062100387,5,11386.69,9-10-5-3
29,3,4,7,2,8,0.420502092,-0.058313529,3,11379.695,3-4-7-2
13,7,15,5,4,4,0.389121339,-0.052006351,3,11373.84,7-15-5-4
51,9,19,3,4,3,0.217573222,-0.050251459,inf,11362.58,9-19-3-4
1,7,8,11,2,12,0.571129707,-0.08408547,3,11333.23,7-8-11-2
59,13,17,5,4,7,0.470711297,-0.08584947,2.5,11328.025,13-17-5-4
47,7,12,3,4,4,0.357740586,-0.052153735,3,11324.04,7-12-3-4
59,3,5,11,4,1,0.422594142,-0.058181101,inf,11314.27,3-5-11-4
75,13,20,3,4,6,0.359832636,-0.058181101,5,11314.21,13-20-3-4
7,7,9,3,4,2,0.324267782,-0.061500645,inf,11304.03,7-9-3-4
9,7,15,3,4,3,0.240585774,-0.050412869,inf,11294.32,7-15-3-4
70,3,6,7,3,4,0.353556485,-0.058181104,3,11267.71,3-6-7-3
41,5,8,11,4,3,0.251046025,-0.041536328,inf,11249.54,5-8-11-4
11,5,6,7,2,13,0.468619247,-0.058181104,2.25,11246.04,5-6-7-2
0,3,6,11,3,5,0.307531381,-0.058181101,4,11240.72,3-6-11-3
74,13,20,3,3,7,0.481171548,-0.058181104,6,11228.4,13-20-3-3
54,3,5,9,3,5,0.39539749,-0.058181104,1.5,11149.74,3-5-9-3
55,3,5,9,4,2,0.414225941,-0.052030198,1,11148.42,3-5-9-4
21,3,4,3,2,10,0.435146444,-0.062218261,2.333333333,11102.37,3-4-3-2
58,3,5,11,3,3,0.479079498,-0.058181104,inf,11075.38,3-5-11-3
36,5,8,9,3,7,0.368200837,-0.058295835,2.5,11067.21,5-8-9-3
35,7,10,7,4,3,0.347280335,-0.057303003,2,11065.9,7-10-7-4
32,5,8,7,3,6,0.278242678,-0.08850666,5,11064.9,5-8-7-3
15,11,23,3,4,3,0.186192469,-0.028231194,inf,11042.655,11-23-3-4
43,5,10,3,2,10,0.328451883,-0.058181104,2.333333333,11029.19,5-10-3-2
61,13,27,5,4,5,0.430962343,-0.08408547,1.5,11019.02,13-27-5-4
37,3,4,11,2,8,0.420502092,-0.07666548,3,10999.36,3-4-11-2
3,7,8,11,4,2,0.30125523,-0.06137893,inf,10957.24,7-8-11-4
49,5,10,5,4,3,0.246861925,-0.040585335,inf,10955.79,5-10-5-4
57,13,27,3,4,5,0.240585774,-0.08850666,4,10954.325,13-27-3-4
53,5,10,7,4,2,0.347280335,-0.041466536,inf,10948.6,5-10-7-4
38,3,4,11,3,3,0.073221757,-0.017397903,inf,10940.07,3-4-11-3
31,3,4,7,4,1,0.117154812,-0.033802445,inf,10913.07,3-4-7-4
37,13,25,3,4,3,0.353556485,-0.08850666,2,10835.08,13-25-3-4
16,5,6,9,3,4,0.39748954,-0.052169728,3,10823.84,5-6-9-3
74,3,6,9,3,4,0.282426778,-0.058181104,3,10817.65,3-6-9-3
21,5,6,11,4,1,0.115062762,-0.040484707,inf,10811.76,5-6-11-4
50,3,5,7,3,3,0.19874477,-0.052027863,2,10803.33,3-5-7-3
34,3,4,9,3,4,0.140167364,-0.041452035,inf,10801.35,3-4-9-3
61,5,10,11,4,3,0.186192469,-0.052124347,2,10772.43,5-10-11-4
41,13,25,5,4,4,0.347280335,-0.08850666,1,10750.745,13-25-5-4
26,7,10,3,3,6,0.271966527,-0.053329901,2,10747.02,7-10-3-3
25,7,10,3,2,12,0.416317992,-0.08850666,3,10728.33,7-10-3-2
30,3,4,7,3,3,0.343096234,-0.058181104,2,10718.61,3-4-7-3
45,3,5,5,2,10,0.470711297,-0.065806725,2.333333333,10709.29,3-5-5-2
67,7,13,3,4,2,0.215481172,-0.050212671,inf,10703.74,7-13-3-4
57,5,10,9,4,3,0.349372385,-0.052220267,2,10676.42,5-10-9-4
77,7,8,9,4,2,0.117154812,-0.017243705,inf,10669.57,7-8-9-4
13,11,14,3,4,1,0.050209205,-0.050554089,inf,10664.34,11-14-3-4
5,7,9,3,2,14,0.468619247,-0.082602205,1.333333333,10647.52,7-9-3-2
17,5,6,9,4,3,0.171548117,-0.040520001,2,10645.74,5-6-9-4
69,7,8,5,4,2,0.121338912,-0.050362478,inf,10640.41,7-8-5-4
53,3,5,9,2,9,0.39958159,-0.07666548,3.5,10618.545,3-5-9-2
33,9,10,5,4,1,0.048117155,-0.006866324,inf,10610.06,9-10-5-4
33,3,4,9,2,9,0.407949791,-0.07666548,3.5,10599.81,3-4-9-2
51,7,12,5,4,2,0.106694561,-0.052021559,1,10573.6,7-12-5-4
9,5,6,5,4,1,0.152719665,-0.061305709,inf,10468,5-6-5-4
11,7,9,5,4,1,0.146443515,-0.041466536,inf,10441.75,7-9-5-4
27,7,10,3,4,1,0.140167364,-0.05292,inf,10441.45,7-10-3-4
44,5,10,3,3,5,0.330543933,-0.058181101,1.5,10338.67,5-10-3-3
65,13,27,7,4,4,0.288702929,-0.08408547,1,10260.94,13-27-7-4
1,3,6,11,4,1,0.075313808,-0.040558344,inf,10214.6,3-6-11-4
49,9,12,3,4,1,0.062761506,-0.041348478,inf,10127.5,9-12-3-4
20,5,6,11,3,4,0.326359833,-0.08850666,1,10031.77,5-6-11-3
0,3,3,3,1,0,0,0,inf,10000,3-3-3-1
1,3,3,3,2,0,0,0,inf,10000,3-3-3-2
2,3,3,3,3,0,0,0,inf,10000,3-3-3-3
3,3,3,3,4,0,0,0,inf,10000,3-3-3-4
4,3,3,5,1,0,0,0,inf,10000,3-3-5-1
5,3,3,5,2,0,0,0,inf,10000,3-3-5-2
6,3,3,5,3,0,0,0,inf,10000,3-3-5-3
7,3,3,5,4,0,0,0,inf,10000,3-3-5-4
8,3,3,7,1,0,0,0,inf,10000,3-3-7-1
9,3,3,7,2,0,0,0,inf,10000,3-3-7-2
10,3,3,7,3,0,0,0,inf,10000,3-3-7-3
11,3,3,7,4,0,0,0,inf,10000,3-3-7-4
12,3,3,9,1,0,0,0,inf,10000,3-3-9-1
13,3,3,9,2,0,0,0,inf,10000,3-3-9-2
14,3,3,9,3,0,0,0,inf,10000,3-3-9-3
15,3,3,9,4,0,0,0,inf,10000,3-3-9-4
16,3,3,11,1,0,0,0,inf,10000,3-3-11-1
17,3,3,11,2,0,0,0,inf,10000,3-3-11-2
18,3,3,11,3,0,0,0,inf,10000,3-3-11-3
19,3,3,11,4,0,0,0,inf,10000,3-3-11-4
35,3,4,9,4,0,0,0,inf,10000,3-4-9-4
39,3,4,11,4,0,0,0,inf,10000,3-4-11-4
43,3,5,3,4,0,0,0,inf,10000,3-5-3-4
51,3,5,7,4,0,0,0,inf,10000,3-5-7-4
67,3,6,5,4,0,0,0,inf,10000,3-6-5-4
71,3,6,7,4,0,0,0,inf,10000,3-6-7-4
5,5,6,3,4,0,0,0,inf,10000,5-6-3-4
13,5,6,7,4,0,0,0,inf,10000,5-6-7-4
25,5,8,3,4,0,0,0,inf,10000,5-8-3-4
29,5,8,5,4,0,0,0,inf,10000,5-8-5-4
45,5,10,3,4,0,0,0,inf,10000,5-10-3-4
29,9,10,3,4,0,0,0,inf,10000,9-10-3-4
71,11,12,3,4,0,0,0,inf,10000,11-12-3-4
47,3,5,5,4,1,0.066945607,-0.058181101,0,9996.94,3-5-5-4
46,3,5,5,3,2,0.110878661,-0.058181104,1,9961.59,3-5-5-3
75,3,6,9,4,1,0.069037657,-0.058181101,0,9920.44,3-6-9-4
