,fast,slow,sig,delay,numSell,exposure,drawdown,winLoss,value,zzz
0,3,6,3,1,348,0.5944142362827484,-0.301063249431695,2.079646017699115,28404.473800000083,3-6-3-1
1,3,6,3,2,129,0.5311418685121108,-0.2737428993561112,2.5833333333333335,18627.97,3-6-3-2
2,3,6,3,3,31,0.45081562036579337,-0.3242729832411896,1.8181818181818181,12160.090600000007,3-6-3-3
3,3,6,4,1,310,0.5976272862086011,-0.26451212774498895,2.263157894736842,28683.623000000076,3-6-4-1
4,3,6,4,2,139,0.5734058329214039,-0.3468606800782071,2.5641025641025643,24674.2017,3-6-4-2
5,3,6,4,3,37,0.6171527434503213,-0.4271174496304031,2.3636363636363638,15676.989000000012,3-6-4-3
6,3,6,5,1,269,0.5820563519525457,-0.32679032227876065,2.3625,28669.73040000003,3-6-5-1
7,3,6,5,2,157,0.5637666831438458,-0.3948373467977477,2.5681818181818183,26130.33190000001,3-6-5-2
8,3,6,5,3,39,0.532377656945131,-0.3346191236655866,3.3333333333333335,25637.099599999994,3-6-5-3
9,3,7,3,1,314,0.5882352941176471,-0.2793887807627895,2.305263157894737,25681.191900000034,3-7-3-1
10,3,7,3,2,136,0.5622837370242214,-0.2740523788441238,2.1627906976744184,19113.870000000006,3-7-3-2
11,3,7,3,3,31,0.4822046465645082,-0.3507260216446874,1.8181818181818181,12217.884700000002,3-7-3-3
12,3,7,4,1,286,0.5847750865051903,-0.29625460898871075,2.3255813953488373,27351.33350000005,3-7-4-1
13,3,7,4,2,150,0.5385565991102323,-0.27359371699640456,2.409090909090909,26087.042600000015,3-7-4-2
14,3,7,4,3,46,0.5721700444883836,-0.32553702111004107,2.8333333333333335,24767.856500000016,3-7-4-3
15,3,7,5,1,249,0.5798319327731093,-0.33584466800671,2.507042253521127,31767.95950000003,3-7-5-1
16,3,7,5,2,153,0.5489372219476025,-0.3993357777172257,2.4,21415.595200000007,3-7-5-2
17,3,7,5,3,38,0.5153237765694513,-0.38129202233803744,2.4545454545454546,13082.453800000012,3-7-5-3
18,3,8,3,1,299,0.5874938210578349,-0.27215801575978577,2.21505376344086,25492.338499999994,3-8-3-1
19,3,8,3,2,140,0.560059317844785,-0.2743816520232505,2.0434782608695654,19452.923300000006,3-8-3-2
20,3,8,3,3,35,0.4757785467128028,-0.2732132088463859,3.375,22719.019200000002,3-8-3-3
21,3,8,4,1,267,0.578843302026693,-0.29810739009854326,2.216867469879518,27883.991700000057,3-8-4-1
22,3,8,4,2,147,0.5434997528423134,-0.28882858168980746,2.5853658536585367,20809.211500000005,3-8-4-2
23,3,8,4,3,47,0.49159663865546216,-0.27334929134612995,2.9166666666666665,24017.10570000002,3-8-4-3
24,3,8,5,1,232,0.5679683638161147,-0.3818835404710651,2.411764705882353,24196.101900000016,3-8-5-1
25,3,8,5,2,152,0.5437469105289174,-0.4452916649585265,2.234042553191489,17867.180700000004,3-8-5-2
26,3,8,5,3,38,0.513840830449827,-0.4106117720903009,1.1111111111111112,11701.533600000008,3-8-5-3
27,3,9,3,1,277,0.5748887790410282,-0.30516029305682973,2.147727272727273,21550.985100000005,3-9-3-1
28,3,9,3,2,134,0.5079090459713297,-0.2744768138861896,2.268292682926829,18825.933700000027,3-9-3-2
29,3,9,3,3,32,0.40336134453781514,-0.2742003658755145,5.4,22432.313900000005,3-9-3-3
30,3,9,4,1,243,0.5687098368759268,-0.3071312091714862,2.2837837837837838,27769.79240000001,3-9-4-1
31,3,9,4,2,136,0.5296589223924864,-0.33720242906208814,2.4871794871794872,17054.0738,3-9-4-2
32,3,9,4,3,42,0.4930795847750865,-0.31900943555370614,2.230769230769231,14662.39850000001,3-9-4-3
33,3,9,5,1,218,0.5657439446366782,-0.3328647431037741,2.40625,24775.251700000033,3-9-5-1
34,3,9,5,2,154,0.5388037567968363,-0.3402689038243555,2.5,19641.20020000002,3-9-5-2
35,3,9,5,3,43,0.44265941670785963,-0.3418882077148379,1.6875,15832.50490000001,3-9-5-3
36,3,10,3,1,258,0.5674740484429066,-0.33219462307655767,2.3947368421052633,21852.603900000027,3-10-3-1
37,3,10,3,2,142,0.5064260998517054,-0.27346709708123246,2.4634146341463414,18856.643700000037,3-10-3-2
38,3,10,3,3,39,0.4322787938704894,-0.31084136331024015,2.9,17257.417,3-10-3-3
39,3,10,4,1,231,0.5583292140385566,-0.32118582689452907,2.164383561643836,25157.613000000038,3-10-4-1
40,3,10,4,2,138,0.5088976767177459,-0.3680654167705234,2.3658536585365852,16374.964299999985,3-10-4-2
41,3,10,4,3,39,0.43252595155709345,-0.27829949481201377,1.6,12167.209800000002,3-10-4-3
42,3,10,5,1,211,0.5652496292634701,-0.3171273289508071,2.5166666666666666,23499.91220000002,3-10-5-1
43,3,10,5,2,150,0.5358378645575878,-0.37045438942516623,2.3333333333333335,18889.740100000035,3-10-5-2
44,3,10,5,3,50,0.3680177953534355,-0.34336012219767514,2.8461538461538463,16586.05520000001,3-10-5-3
45,3,12,3,1,233,0.5491843796342066,-0.32287758585025583,2.191780821917808,21118.915200000014,3-12-3-1
46,3,12,3,2,129,0.5143351458230351,-0.31361631586393474,2.3076923076923075,15866.863000000028,3-12-3-2
47,3,12,3,3,34,0.374938210578349,-0.3258087501781391,2.090909090909091,12122.878700000003,3-12-3-3
48,3,12,4,1,211,0.5583292140385566,-0.3027991471115341,2.767857142857143,25840.012400000014,3-12-4-1
49,3,12,4,2,143,0.5405338606030647,-0.36610341912280303,2.3255813953488373,18984.574700000023,3-12-4-2
50,3,12,4,3,46,0.4199209095402867,-0.3167245793198841,2.066666666666667,14085.090000000004,3-12-4-3
51,3,12,5,1,194,0.5551161641127039,-0.29867712934938434,2.5272727272727273,25617.408600000002,3-12-5-1
52,3,12,5,2,135,0.5017301038062284,-0.36752187037874456,2.0,17326.207600000016,3-12-5-2
53,3,12,5,3,47,0.36035590706870985,-0.307778604640753,2.6153846153846154,14385.430000000008,3-12-5-3
54,3,14,3,1,209,0.5380622837370242,-0.30324258132436793,2.370967741935484,22757.37430000003,3-14-3-1
55,3,14,3,2,117,0.504695996045477,-0.2567815082540195,3.0344827586206895,17123.90330000001,3-14-3-2
56,3,14,3,3,36,0.40657439446366783,-0.34268096201418596,2.272727272727273,14737.881100000004,3-14-3-3
57,3,14,4,1,193,0.5459713297083539,-0.28741974882769505,2.784313725490196,26992.151600000012,3-14-4-1
58,3,14,4,2,132,0.518536826495304,-0.30334640462972684,2.6666666666666665,21203.94460000002,3-14-4-2
59,3,14,4,3,42,0.4139891250617894,-0.2915498638980448,1.8,16413.250000000004,3-14-4-3
60,3,14,5,1,180,0.5635195254572417,-0.29801465702903096,2.3333333333333335,24065.327400000002,3-14-5-1
61,3,14,5,2,130,0.5081562036579338,-0.3305822498449268,2.3333333333333335,18539.986599999997,3-14-5-2
62,3,14,5,3,46,0.36406327236777064,-0.3267619120682276,1.875,13192.54000000001,3-14-5-3
63,3,16,3,1,198,0.5378151260504201,-0.27418651495133783,2.7358490566037736,24898.805600000007,3-16-3-1
64,3,16,3,2,116,0.49653979238754326,-0.2532493619434732,3.142857142857143,20099.25439999999,3-16-3-2
65,3,16,3,3,34,0.3319327731092437,-0.3047276233033185,2.7777777777777777,15124.822100000007,3-16-3-3
66,3,16,4,1,179,0.5481957488877904,-0.28483311146465795,2.7291666666666665,25052.90150000001,3-16-4-1
67,3,16,4,2,124,0.5155709342560554,-0.30238435074209796,2.5428571428571427,21078.281300000046,3-16-4-2
68,3,16,4,3,41,0.3509639149777558,-0.29168991133785444,2.1538461538461537,17084.04000000001,3-16-4-3
69,3,16,5,1,166,0.5565991102323282,-0.30622843567528224,2.3877551020408165,23373.945400000008,3-16-5-1
70,3,16,5,2,121,0.49752842313395945,-0.34353551085427997,2.4571428571428573,16963.068000000014,3-16-5-2
71,3,16,5,3,40,0.3761739990113693,-0.31982627319308354,2.3333333333333335,11928.050000000001,3-16-5-3
72,3,18,3,1,194,0.5415224913494809,-0.30135534818273785,2.88,23779.57620000002,3-18-3-1
73,3,18,3,2,108,0.4985170538803757,-0.269116224775937,2.857142857142857,17101.137099999996,3-18-3-2
74,3,18,3,3,33,0.3692535837864558,-0.30321681395185324,3.125,17973.452200000014,3-18-3-3
75,3,18,4,1,173,0.5491843796342066,-0.26864999621348123,2.9318181818181817,29511.98969999999,3-18-4-1
76,3,18,4,2,119,0.5210084033613446,-0.3267453078735831,3.103448275862069,20619.167,3-18-4-2
77,3,18,4,3,39,0.4411764705882353,-0.29168991133785444,2.0,18266.130000000023,3-18-4-3
78,3,18,5,1,160,0.5516559565002471,-0.3379663707675541,2.404255319148936,24341.80720000005,3-18-5-1
79,3,18,5,2,115,0.4930795847750865,-0.3946284346755808,2.59375,15864.985100000005,3-18-5-2
80,3,18,5,3,41,0.3346515076618883,-0.35982371167296234,2.1538461538461537,10348.240000000007,3-18-5-3
81,3,20,3,1,184,0.5365793376174,-0.30490315394394696,2.9148936170212765,26357.454400000024,3-20-3-1
82,3,20,3,2,104,0.46589223924864065,-0.2909436155134172,3.16,18325.610000000004,3-20-3-2
83,3,20,3,3,32,0.3400889767671775,-0.30321681395185324,2.5555555555555554,14966.212200000005,3-20-3-3
84,3,20,4,1,166,0.5434997528423134,-0.2653828859387215,2.608695652173913,27241.76450000001,3-20-4-1
85,3,20,4,2,121,0.49752842313395945,-0.3223773112771723,3.1724137931034484,22768.93210000002,3-20-4-2
86,3,20,4,3,38,0.3870489372219476,-0.2892782473491177,1.9230769230769231,14809.910000000005,3-20-4-3
87,3,20,5,1,152,0.5415224913494809,-0.3469980642291791,2.8974358974358974,24528.8302,3-20-5-1
88,3,20,5,2,114,0.47923875432525953,-0.39271497166033753,2.5625,14592.195400000013,3-20-5-2
89,3,20,5,3,44,0.337864557587741,-0.37479873160213817,2.142857142857143,11525.320000000012,3-20-5-3
90,3,22,3,1,175,0.5227385071675729,-0.2778141845349272,3.0697674418604652,31704.662100000012,3-22-3-1
91,3,22,3,2,98,0.4532871972318339,-0.2913182533122886,3.4545454545454546,18584.289999999994,3-22-3-2
92,3,22,3,3,25,0.2698961937716263,-0.32838893414879883,2.125,10767.152499999998,3-22-3-3
93,3,22,4,1,161,0.5316361838853189,-0.2574732397650759,3.4722222222222223,37600.325100000024,3-22-4-1
94,3,22,4,2,117,0.4802273850716757,-0.29052618091302235,3.68,27685.1713,3-22-4-2
95,3,22,4,3,38,0.3961937716262976,-0.3141701479314792,1.9230769230769231,15254.19000000001,3-22-4-3
96,3,22,5,1,148,0.52743450321305,-0.3343317345904843,3.3529411764705883,31466.391500000027,3-22-5-1
97,3,22,5,2,111,0.47701433514582303,-0.3897558990715881,2.7,18593.16460000001,3-22-5-2
98,3,22,5,3,41,0.3596144340088977,-0.3727086098690578,2.4166666666666665,12474.63000000001,3-22-5-3
99,3,24,3,1,174,0.5207612456747405,-0.2502039071358914,3.142857142857143,30544.54119999999,3-24-3-1
100,3,24,3,2,92,0.4456253089471083,-0.31630381671100544,3.1818181818181817,17299.670000000002,3-24-3-2
101,3,24,3,3,27,0.3025210084033613,-0.32838893414879883,2.375,14969.6825,3-24-3-3
102,3,24,4,1,158,0.5286702916460702,-0.31046249368491735,3.5142857142857142,35509.44090000001,3-24-4-1
103,3,24,4,2,115,0.4740484429065744,-0.29053617148390265,4.0,27709.48020000001,3-24-4-2
104,3,24,4,3,39,0.3971824023727138,-0.3139620357571079,2.25,15954.410000000007,3-24-4-3
0,3,24,5,1,140,0.5289174493326743,-0.32095651001334075,3.5161290322580645,28814.273100000035,3-24-5-1
1,3,24,5,2,109,0.4809688581314879,-0.379828937434145,3.1923076923076925,20006.24430000001,3-24-5-2
2,3,24,5,3,39,0.3121601581809194,-0.3727086098690578,2.0,11383.510000000015,3-24-5-3
3,4,6,3,1,332,0.6050420168067226,-0.22849339087118692,2.018181818181818,29344.912900000032,4-6-3-1
4,4,6,3,2,156,0.5706870983687593,-0.2286127122141906,3.0,33509.73260000002,4-6-3-2
5,4,6,3,3,40,0.4656450815620366,-0.23625932317761367,1.5,13532.310000000009,4-6-3-3
6,4,6,4,1,303,0.5963914977755809,-0.2811970871712073,2.1237113402061856,27226.7808,4-6-4-1
7,4,6,4,2,172,0.5869995056846268,-0.215404321944273,2.372549019607843,46496.5638,4-6-4-2
8,4,6,4,3,39,0.6267918932278794,-0.2803990104057121,2.5454545454545454,25975.98999999999,4-6-4-3
9,4,6,5,1,271,0.573900148294612,-0.27103051177915227,2.3875,32047.478200000056,4-6-5-1
10,4,6,5,2,162,0.5724172021749876,-0.3100212432686996,2.4468085106382977,28081.66340000001,4-6-5-2
11,4,6,5,3,48,0.6057834898665349,-0.32752159572116457,2.2,28739.41,4-6-5-3
12,4,7,3,1,309,0.5956500247157687,-0.24657408903363012,2.121212121212121,30567.23889999998,4-7-3-1
13,4,7,3,2,171,0.536826495304004,-0.22062937030129787,2.2884615384615383,28988.869499999997,4-7-3-2
14,4,7,3,3,43,0.42758279782501235,-0.333325373178196,2.0714285714285716,14989.550000000008,4-7-3-3
15,4,7,4,1,282,0.5840336134453782,-0.29278021270364524,2.3176470588235296,33127.039100000045,4-7-4-1
16,4,7,4,2,178,0.5857637172516065,-0.344965707126612,2.2962962962962963,25926.669899999986,4-7-4-2
17,4,7,4,3,50,0.6070192782995552,-0.3493832468458438,2.3333333333333335,24831.220600000004,4-7-4-3
18,4,7,5,1,250,0.5711814137419674,-0.29543768315424945,2.4246575342465753,31672.888699999992,4-7-5-1
19,4,7,5,2,175,0.5778546712802768,-0.3008871537690902,2.723404255319149,36649.49340000002,4-7-5-2
20,4,7,5,3,57,0.49703410776075135,-0.37384901467379716,3.0714285714285716,25743.76000000001,4-7-5-3
21,4,8,3,1,286,0.5815620365793376,-0.282520143437485,2.2134831460674156,29928.858300000044,4-8-3-1
22,4,8,3,2,167,0.5546218487394958,-0.42022340670359853,2.7111111111111112,25104.185599999986,4-8-3-2
23,4,8,3,3,45,0.4649036085022244,-0.3092181364539404,2.75,20918.430000000008,4-8-3-3
24,4,8,4,1,259,0.5763717251606525,-0.33066879160188656,2.3205128205128207,26994.62110000001,4-8-4-1
25,4,8,4,2,175,0.560306475531389,-0.3006462857891755,2.1818181818181817,27182.07230000001,4-8-4-2
26,4,8,4,3,45,0.5459713297083539,-0.383456178761363,3.5,23088.40000000001,4-8-4-3
27,4,8,5,1,241,0.5734058329214039,-0.31725240975563196,2.5970149253731343,33920.6244,4-8-5-1
28,4,8,5,2,187,0.5820563519525457,-0.30979050002264935,2.462962962962963,31294.94920000001,4-8-5-2
29,4,8,5,3,56,0.5259515570934256,-0.3340461409742141,2.7333333333333334,20887.140900000013,4-8-5-3
30,4,9,3,1,262,0.5860108749382106,-0.24724050605092107,2.1951219512195124,30069.319300000025,4-9-3-1
31,4,9,3,2,158,0.5761245674740484,-0.39820299111874313,2.0980392156862746,18277.339599999996,4-9-3-2
32,4,9,3,3,47,0.46539792387543255,-0.346015614314201,2.6153846153846154,21093.190000000013,4-9-3-3
33,4,9,4,1,239,0.5706870983687593,-0.3168886837234988,2.463768115942029,28113.499800000034,4-9-4-1
34,4,9,4,2,166,0.5605536332179931,-0.37010887294347466,3.048780487804878,26437.073200000028,4-9-4-2
35,4,9,4,3,49,0.5358378645575878,-0.42615565585913423,3.0833333333333335,23536.669999999987,4-9-4-3
36,4,9,5,1,222,0.5800790904597133,-0.27717951615787145,2.1267605633802815,27880.560300000016,4-9-5-1
37,4,9,5,2,166,0.5729115175481958,-0.23007832251644272,2.608695652173913,30083.128000000015,4-9-5-2
38,4,9,5,3,57,0.45625308947108256,-0.2912200706569777,2.3529411764705883,18019.279999999995,4-9-5-3
39,4,10,3,1,241,0.5726643598615917,-0.26564726034517755,2.3472222222222223,27538.205199999993,4-10-3-1
40,4,10,3,2,162,0.555857637172516,-0.3242414564844165,2.306122448979592,23164.264200000023,4-10-3-2
41,4,10,3,3,47,0.43895205140879884,-0.4023622983524685,1.9375,16658.59,4-10-3-3
42,4,10,4,1,230,0.5719228868017795,-0.2981034481303388,2.484848484848485,27607.139900000035,4-10-4-1
43,4,10,4,2,164,0.5526445872466633,-0.287784464996545,3.0,30285.3735,4-10-4-2
44,4,10,4,3,48,0.41744933267424617,-0.34681314452151274,2.4285714285714284,13042.550000000001,4-10-4-3
45,4,10,5,1,210,0.5709342560553633,-0.22456121009248217,2.0,29048.72329999999,4-10-5-1
46,4,10,5,2,157,0.5407810182896688,-0.29794981436132956,2.0784313725490198,24207.341300000066,4-10-5-2
47,4,10,5,3,55,0.4117647058823529,-0.33843127074750584,1.894736842105263,14007.779999999999,4-10-5-3
48,4,12,3,1,218,0.5721700444883836,-0.2652352062982614,2.2058823529411766,27554.488499999974,4-12-3-1
49,4,12,3,2,147,0.5432525951557093,-0.3065254483631447,2.2666666666666666,18788.497600000002,4-12-3-2
50,4,12,3,3,51,0.39891250617894214,-0.4412028231181325,2.0,15290.96,4-12-3-3
51,4,12,4,1,207,0.5719228868017795,-0.24657547855867717,2.1363636363636362,26652.552799999998,4-12-4-1
52,4,12,4,2,147,0.5378151260504201,-0.30314838283530177,2.675,21165.66420000001,4-12-4-2
53,4,12,4,3,49,0.4134948096885813,-0.3914522633202838,1.7222222222222223,12154.580000000002,4-12-4-3
54,4,12,5,1,191,0.5642609985170539,-0.24224404612402362,2.4727272727272727,29183.5327,4-12-5-1
55,4,12,5,2,145,0.5165595650024716,-0.22394656137806654,2.717948717948718,24731.013900000024,4-12-5-2
56,4,12,5,3,65,0.4542758279782501,-0.31695801334079027,1.9545454545454546,15941.170000000007,4-12-5-3
57,4,14,3,1,200,0.5640138408304498,-0.27409007996859364,2.4482758620689653,26656.89889999999,4-14-3-1
58,4,14,3,2,137,0.5150766188828473,-0.31610517697756974,2.8055555555555554,20199.35520000001,4-14-3-2
59,4,14,3,3,44,0.3712308452792882,-0.4183680717093836,2.3846153846153846,14337.220000000008,4-14-3-3
60,4,14,4,1,191,0.5677212061295106,-0.2554455673200246,2.6037735849056602,29586.4669,4-14-4-1
61,4,14,4,2,146,0.5427582797825012,-0.2649747675662645,2.8421052631578947,26003.549199999994,4-14-4-2
62,4,14,4,3,53,0.39817103311913,-0.28238652797077446,1.9444444444444444,15503.449999999995,4-14-4-3
63,4,14,5,1,175,0.5583292140385566,-0.3008334491028623,2.5714285714285716,27543.236000000023,4-14-5-1
64,4,14,5,2,140,0.5192782995551162,-0.296234868786276,3.0,22933.983300000007,4-14-5-2
65,4,14,5,3,63,0.4438952051408799,-0.35385558413970497,2.3157894736842106,13347.830000000007,4-14-5-3
66,4,16,3,1,185,0.555857637172516,-0.2579269275213056,2.490566037735849,27717.2988,4-16-3-1
67,4,16,3,2,125,0.5051903114186851,-0.3717950458496141,3.032258064516129,16292.598200000011,4-16-3-2
68,4,16,3,3,45,0.3744438952051409,-0.40824987714571354,2.75,13233.469999999996,4-16-3-3
69,4,16,4,1,173,0.5523974295600593,-0.3563520820691127,2.2641509433962264,23294.055600000032,4-16-4-1
70,4,16,4,2,136,0.5081562036579338,-0.29737584341095386,2.5789473684210527,20606.213800000027,4-16-4-2
71,4,16,4,3,52,0.38729609490855166,-0.36201624027885493,2.0588235294117645,13117.280000000002,4-16-4-3
72,4,16,5,1,161,0.5598121601581809,-0.3130052146570001,2.8333333333333335,24301.571799999983,4-16-5-1
73,4,16,5,2,133,0.5081562036579338,-0.27342647010821464,2.911764705882353,21877.495300000006,4-16-5-2
74,4,16,5,3,59,0.4058329214038557,-0.2709782374990608,2.4705882352941178,14936.83000000001,4-16-5-3
75,4,18,3,1,180,0.5474542758279782,-0.2609573757108384,2.272727272727273,26212.520899999956,4-18-3-1
76,4,18,3,2,119,0.4898665348492338,-0.3428640610223744,2.838709677419355,15682.388700000023,4-18-3-2
77,4,18,3,3,37,0.31735046959960456,-0.4006413004496294,2.3636363636363638,11800.819999999998,4-18-3-3
78,4,18,4,1,165,0.5481957488877904,-0.3672023911925061,2.36734693877551,23641.136300000046,4-18-4-1
79,4,18,4,2,133,0.513593672763223,-0.30660743779636673,2.6944444444444446,22158.17380000002,4-18-4-2
80,4,18,4,3,56,0.40484429065743943,-0.381612595763047,2.5,15173.300000000016,4-18-4-3
81,4,18,5,1,153,0.5477014335145823,-0.31230164520951276,2.731707317073171,22003.085500000012,4-18-5-1
82,4,18,5,2,127,0.5042016806722689,-0.3042501545244276,2.735294117647059,21431.06420000002,4-18-5-2
83,4,18,5,3,59,0.41917943648047457,-0.21662906835010098,3.5384615384615383,21627.489999999998,4-18-5-3
84,4,20,3,1,166,0.5410281759762728,-0.22403806841301213,2.3877551020408165,27609.94210000002,4-20-3-1
85,4,20,3,2,116,0.47602570439940683,-0.3279522752855715,2.625,16383.238100000031,4-20-3-2
86,4,20,3,3,40,0.3509639149777558,-0.42642976533898275,2.3333333333333335,11871.140000000005,4-20-3-3
87,4,20,4,1,158,0.5397923875432526,-0.33311799537935033,2.6744186046511627,23192.556300000004,4-20-4-1
88,4,20,4,2,127,0.49876421156697975,-0.3342184845916075,3.096774193548387,20008.985399999998,4-20-4-2
89,4,20,4,3,58,0.38136431043005437,-0.3812750031114983,2.625,14610.639999999998,4-20-4-3
90,4,20,5,1,145,0.542016806722689,-0.3756894860869572,2.717948717948718,22165.235800000013,4-20-5-1
91,4,20,5,2,124,0.4995056846267919,-0.3546538627154293,3.0,20838.17580000003,4-20-5-2
92,4,20,5,3,60,0.39817103311913,-0.2618257165880051,2.75,19758.980000000018,4-20-5-3
93,4,22,3,1,165,0.536826495304004,-0.220162971500369,2.6666666666666665,33758.320299999985,4-22-3-1
94,4,22,3,2,119,0.472071181413742,-0.3329359644641397,2.838709677419355,18011.977600000024,4-22-3-2
95,4,22,3,3,40,0.3568956994562531,-0.4322361342748168,2.3333333333333335,12180.799999999997,4-22-3-3
96,4,22,4,1,153,0.5343549184379635,-0.34456868935051993,2.825,26848.89790000001,4-22-4-1
97,4,22,4,2,124,0.49159663865546216,-0.3313412051792166,3.1333333333333333,22356.162200000006,4-22-4-2
98,4,22,4,3,49,0.3578843302026693,-0.31426485690132183,2.2666666666666666,12936.620000000006,4-22-4-3
99,4,22,5,1,140,0.5308947108255067,-0.3224937454066832,3.6666666666666665,31184.232299999996,4-22-5-1
100,4,22,5,2,121,0.48640632723677707,-0.3401889780332631,3.4814814814814814,23456.722500000025,4-22-5-2
101,4,22,5,3,56,0.3771626297577855,-0.26748636802998643,2.7333333333333334,18620.990000000005,4-22-5-3
102,4,24,3,1,159,0.5234799802273851,-0.22938857902203647,3.076923076923077,35828.57180000001,4-24-3-1
103,4,24,3,2,111,0.45180425111220957,-0.33196777109946596,3.111111111111111,19000.94410000001,4-24-3-2
104,4,24,3,3,39,0.3712308452792882,-0.3816768610784059,2.9,19391.18999999999,4-24-3-3
0,4,24,4,1,149,0.5261987147800297,-0.3339033124291286,2.9210526315789473,27174.750600000025,4-24-4-1
1,4,24,4,2,124,0.48788927335640137,-0.29787911778991694,3.769230769230769,26408.6531,4-24-4-2
2,4,24,4,3,53,0.36233316856154224,-0.34242171446635866,3.076923076923077,16152.030000000006,4-24-4-3
3,4,24,5,1,138,0.5269401878398419,-0.32272072290854886,4.3076923076923075,34514.97069999999,4-24-5-1
4,4,24,5,2,120,0.4834404349975284,-0.33169956542136114,3.8,27202.340100000023,4-24-5-2
5,4,24,5,3,58,0.36628769154720714,-0.198468516173593,2.8666666666666667,20273.354199999998,4-24-5-3
6,5,6,3,1,308,0.6141868512110726,-0.2213315409535483,2.422222222222222,39119.120500000005,5-6-3-1
7,5,6,3,2,141,0.6218487394957983,-0.3962068355278761,2.525,24343.69000000003,5-6-3-2
8,5,6,3,3,38,0.47701433514582303,-0.3729850572511517,4.428571428571429,24980.538700000005,5-6-3-3
9,5,6,4,1,280,0.5827978250123579,-0.2430607138645714,2.2941176470588234,35153.75010000001,5-6-4-1
10,5,6,4,2,151,0.5978744438952052,-0.2486183909626032,1.9607843137254901,22919.8154,5-6-4-2
11,5,6,4,3,44,0.5158180919426594,-0.366483132497422,2.6666666666666665,20831.69000000001,5-6-4-3
12,5,6,5,1,260,0.5768660405338606,-0.3222325015236853,2.1325301204819276,26995.860200000006,5-6-5-1
13,5,6,5,2,160,0.5622837370242214,-0.2704021255891286,2.2,22049.98420000001,5-6-5-2
14,5,6,5,3,52,0.5410281759762728,-0.33514952816618576,1.6,15409.169999999998,5-6-5-3
15,5,7,3,1,294,0.5921898171033119,-0.25451625084682056,2.161290322580645,35508.79940000005,5-7-3-1
16,5,7,3,2,154,0.565002471576866,-0.27947764974419365,2.276595744680851,18991.762500000023,5-7-3-2
17,5,7,3,3,54,0.5224913494809689,-0.3887919505255314,3.5,19136.69,5-7-3-3
18,5,7,4,1,277,0.5778546712802768,-0.26644132791131564,2.1123595505617976,27442.449000000004,5-7-4-1
19,5,7,4,2,177,0.560059317844785,-0.2803762162766867,2.4038461538461537,24645.31850000002,5-7-4-2
20,5,7,4,3,57,0.5269401878398419,-0.3359745289558779,2.8,21029.030000000017,5-7-4-3
21,5,7,5,1,253,0.5793376173999011,-0.24377242695957924,2.1625,31868.188599999972,5-7-5-1
22,5,7,5,2,182,0.5538803756796836,-0.23665195870480493,2.25,24021.537499999995,5-7-5-2
23,5,7,5,3,51,0.5561047948591201,-0.33670018310152694,2.4,19585.140000000007,5-7-5-3
24,5,8,3,1,273,0.5790904597132971,-0.31784318695691816,2.1379310344827585,27886.34620000003,5-8-3-1
25,5,8,3,2,170,0.532624814631735,-0.38949911853329244,2.1481481481481484,18155.204200000007,5-8-3-2
26,5,8,3,3,52,0.42338111715274346,-0.30567234313905645,2.25,18684.61000000001,5-8-3-3
27,5,8,4,1,255,0.5783489866534849,-0.29685909627911133,2.0357142857142856,30072.727700000003,5-8-4-1
28,5,8,4,2,190,0.5583292140385566,-0.25827550111032005,2.2758620689655173,27288.82710000004,5-8-4-2
29,5,8,4,3,52,0.551161641127039,-0.4133342581378351,2.0588235294117645,12126.14000000001,5-8-4-3
30,5,8,5,1,237,0.5692041522491349,-0.35466215459583134,2.16,28244.59350000002,5-8-5-1
31,5,8,5,2,186,0.5346020761245674,-0.37496027057402614,2.206896551724138,19570.19120000004,5-8-5-2
32,5,8,5,3,57,0.45996045477014336,-0.2870401911047202,2.0,16466.359999999993,5-8-5-3
33,5,9,3,1,250,0.5734058329214039,-0.25620734770511133,2.3333333333333335,34308.57060000001,5-9-3-1
34,5,9,3,2,176,0.5358378645575878,-0.2138316442580251,1.9830508474576272,26847.471500000018,5-9-3-2
35,5,9,3,3,52,0.467622343054869,-0.33426192816412476,2.466666666666667,15848.39,5-9-3-3
36,5,9,4,1,239,0.578596144340089,-0.3480718682044033,2.0641025641025643,25257.032200000012,5-9-4-1
37,5,9,4,2,175,0.5479485912011863,-0.3579614282669952,1.9661016949152543,22481.970200000025,5-9-4-2
38,5,9,4,3,65,0.46910528917449335,-0.359412745262422,2.0952380952380953,15030.934100000008,5-9-4-3
39,5,9,5,1,219,0.569451309935739,-0.3325178118732747,2.084507042253521,30799.923499999975,5-9-5-1
40,5,9,5,2,184,0.5583292140385566,-0.42698534345265177,1.967741935483871,16508.140500000023,5-9-5-2
41,5,9,5,3,69,0.4782501235788433,-0.2726078958793016,1.76,17978.550000000007,5-9-5-3
42,5,10,3,1,238,0.5746416213544241,-0.27722961153206394,2.352112676056338,28457.0724,5-10-3-1
43,5,10,3,2,161,0.5481957488877904,-0.35558321499985507,2.0961538461538463,17706.57750000001,5-10-3-2
44,5,10,3,3,53,0.41794364804745426,-0.36840947238644123,1.7894736842105263,11474.880000000003,5-10-3-3
45,5,10,4,1,226,0.578843302026693,-0.3022610046803063,1.8974358974358974,27518.037700000004,5-10-4-1
46,5,10,4,2,173,0.5526445872466633,-0.3659009225462674,2.1454545454545455,21686.982900000017,5-10-4-2
47,5,10,4,3,66,0.46959960454770144,-0.3261882326699328,1.8695652173913044,16287.431300000004,5-10-4-3
48,5,10,5,1,209,0.5625308947108255,-0.3113924001390525,2.073529411764706,27847.508100000003,5-10-5-1
49,5,10,5,2,178,0.5506673257538309,-0.36894846953947236,2.2962962962962963,20353.74010000004,5-10-5-2
50,5,10,5,3,81,0.481463173504696,-0.28041237455172574,2.1153846153846154,18213.65500000001,5-10-5-3
51,5,12,3,1,208,0.5682155215027187,-0.1993467611776145,2.4098360655737703,35087.922899999976,5-12-3-1
52,5,12,3,2,150,0.5187839841819081,-0.2800599050822343,2.409090909090909,28131.544300000005,5-12-3-2
53,5,12,3,3,54,0.37320810677212063,-0.3459500616329115,2.0,14290.68000000001,5-12-3-3
54,5,12,4,1,198,0.5627780523974295,-0.2631220431843008,2.142857142857143,25007.85799999998,5-12-4-1
55,5,12,4,2,162,0.5215027187345527,-0.2603228737417828,2.24,25341.922300000053,5-12-4-2
56,5,12,4,3,75,0.4510627780523974,-0.2727048779934136,2.0,16167.110000000006,5-12-4-3
57,5,12,5,1,188,0.5551161641127039,-0.2516415788789287,2.4814814814814814,29333.386299999973,5-12-5-1
58,5,12,5,2,161,0.537320810677212,-0.3059292027640549,2.3541666666666665,24042.04270000004,5-12-5-2
59,5,12,5,3,80,0.46737518536826494,-0.2867917566852921,2.3333333333333335,24482.636799999986,5-12-5-3
60,5,14,3,1,188,0.5659911023232822,-0.1604777118491361,2.76,37922.27379999999,5-14-3-1
61,5,14,3,2,134,0.495304003954523,-0.22719357151800035,2.9411764705882355,24645.392900000024,5-14-3-2
62,5,14,3,3,65,0.43400889767671774,-0.23721190636229647,3.3333333333333335,20490.370000000014,5-14-3-3
63,5,14,4,1,179,0.5575877409787444,-0.2808481903646481,2.58,27556.781799999986,5-14-4-1
64,5,14,4,2,147,0.5200197726149284,-0.2670212714621502,2.8684210526315788,25932.5794,5-14-4-2
65,5,14,4,3,72,0.4231339594661394,-0.24921903266856962,3.0,21709.25649999999,5-14-4-3
66,5,14,5,1,169,0.5570934256055363,-0.25479390719857736,2.9302325581395348,26020.28979999999,5-14-5-1
67,5,14,5,2,143,0.5261987147800297,-0.2895499048471406,2.6666666666666665,25893.89220000003,5-14-5-2
68,5,14,5,3,76,0.48418190805734057,-0.29823947677043994,2.1666666666666665,23529.155399999974,5-14-5-3
69,5,16,3,1,172,0.5519031141868512,-0.16023810307701036,2.909090909090909,35836.317400000014,5-16-3-1
70,5,16,3,2,122,0.46539792387543255,-0.22678022840124532,3.206896551724138,21607.883600000037,5-16-3-2
71,5,16,3,3,59,0.40113692535837864,-0.34163418665891404,2.6875,17052.38000000002,5-16-3-3
72,5,16,4,1,164,0.555610479485912,-0.2620794500755627,3.0,29858.68570000002,5-16-4-1
73,5,16,4,2,146,0.5145823035096392,-0.28949937816419963,3.1714285714285713,28591.010000000013,5-16-4-2
74,5,16,4,3,73,0.41201186356895697,-0.21725097599628945,3.2941176470588234,25245.647299999982,5-16-4-3
75,5,16,5,1,156,0.5610479485912012,-0.33208843015461126,3.1052631578947367,22017.166699999994,5-16-5-1
76,5,16,5,2,138,0.5304003954522986,-0.3642388180235635,2.45,24928.69250000003,5-16-5-2
77,5,16,5,3,80,0.46539792387543255,-0.3550439966764339,2.076923076923077,18553.3981,5-16-5-3
78,5,18,3,1,167,0.5434997528423134,-0.1952549272733833,2.4791666666666665,29100.79920000001,5-18-3-1
79,5,18,3,2,127,0.46786950074147304,-0.3193804623348733,3.096774193548387,20951.733800000045,5-18-3-2
80,5,18,3,3,55,0.375185368264953,-0.30167595314350903,3.230769230769231,17095.110000000008,5-18-3-3
81,5,18,4,1,155,0.5536332179930796,-0.3068110433835721,3.0789473684210527,25608.43129999998,5-18-4-1
82,5,18,4,2,135,0.5242214532871973,-0.3529698013982601,3.090909090909091,27005.140000000036,5-18-4-2
83,5,18,4,3,68,0.41744933267424617,-0.302141368235377,3.25,20497.03999999999,5-18-4-3
84,5,18,5,1,149,0.5484429065743944,-0.36634248316188134,2.5476190476190474,20988.906899999998,5-18-5-1
85,5,18,5,2,133,0.5341077607513594,-0.40856225356831805,2.911764705882353,25291.962600000017,5-18-5-2
86,5,18,5,3,75,0.42338111715274346,-0.4116086533488017,2.409090909090909,17789.303199999988,5-18-5-3
87,5,20,3,1,159,0.541275333662877,-0.2171441288482459,2.975,30905.381299999983,5-20-3-1
88,5,20,3,2,122,0.4849233811171527,-0.3196603885816592,3.88,23318.45320000003,5-20-3-2
89,5,20,3,3,55,0.3956994562530895,-0.3017312774568048,2.9285714285714284,18611.490000000005,5-20-3-3
90,5,20,4,1,151,0.5452298566485417,-0.379239772768437,2.973684210526316,24475.071800000012,5-20-4-1
91,5,20,4,2,134,0.5242214532871973,-0.40064223044442027,3.0606060606060606,28108.911600000007,5-20-4-2
92,5,20,4,3,71,0.44216510133465153,-0.2907256353434861,3.176470588235294,24700.63999999999,5-20-4-3
93,5,20,5,1,141,0.5284231339594662,-0.35159477716981885,3.40625,25046.047200000015,5-20-5-1
94,5,20,5,2,128,0.5086505190311419,-0.4072383745494362,3.2666666666666666,25183.692600000053,5-20-5-2
95,5,20,5,3,73,0.3994068215521503,-0.34090413266313296,2.4761904761904763,18766.603599999984,5-20-5-3
96,5,22,3,1,149,0.5390509144834404,-0.21701112263158875,3.257142857142857,32121.044899999994,5-22-3-1
97,5,22,3,2,116,0.49802273850716755,-0.2995792587157645,3.8333333333333335,22182.753500000013,5-22-3-2
98,5,22,3,3,56,0.40929312901631243,-0.2800154185319934,2.2941176470588234,18361.560000000023,5-22-3-3
99,5,22,4,1,140,0.5318833415719229,-0.30173703975478416,3.5161290322580645,30374.23260000002,5-22-4-1
100,5,22,4,2,126,0.5012357884330203,-0.35138527235426625,3.3448275862068964,27213.062300000023,5-22-4-2
101,5,22,4,3,63,0.3999011369253584,-0.3864040032116524,3.5,20664.20999999999,5-22-4-3
102,5,22,5,1,135,0.5271873455264459,-0.30831604702531945,3.6551724137931036,29549.284800000016,5-22-5-1
103,5,22,5,2,124,0.5121107266435986,-0.3956600149777625,3.5925925925925926,28586.49180000003,5-22-5-2
104,5,22,5,3,71,0.4078101828966881,-0.3850585830387743,2.380952380952381,15678.162799999991,5-22-5-3
0,5,24,3,1,148,0.5271873455264459,-0.21794186412642824,3.2285714285714286,35820.59580000005,5-24-3-1
1,5,24,3,2,110,0.47652001977261493,-0.2766724246048121,4.0,23820.49340000003,5-24-3-2
2,5,24,3,3,52,0.41201186356895697,-0.2881185824390359,2.7142857142857144,19696.810000000012,5-24-3-3
3,5,24,4,1,139,0.5271873455264459,-0.31280594987615545,3.6333333333333333,34134.4947,5-24-4-1
4,5,24,4,2,122,0.49802273850716755,-0.35837636035498127,4.083333333333333,31688.711000000007,5-24-4-2
5,5,24,4,3,63,0.37765694513099357,-0.37865800662109955,4.25,23227.079999999998,5-24-4-3
6,5,24,5,1,134,0.5227385071675729,-0.30672094197160654,3.962962962962963,31847.5363,5-24-5-1
7,5,24,5,2,120,0.49802273850716755,-0.3937323868298078,4.0,30571.651500000014,5-24-5-2
8,5,24,5,3,72,0.3956994562530895,-0.2819277932986267,3.5,25672.005399999987,5-24-5-3
9,6,6,3,1,0,0.0,0.0,0.0,10000.0,6-6-3-1
10,6,6,3,2,0,0.0,0.0,0.0,10000.0,6-6-3-2
11,6,6,3,3,0,0.0,0.0,0.0,10000.0,6-6-3-3
12,6,6,4,1,0,0.0,0.0,0.0,10000.0,6-6-4-1
13,6,6,4,2,0,0.0,0.0,0.0,10000.0,6-6-4-2
14,6,6,4,3,0,0.0,0.0,0.0,10000.0,6-6-4-3
15,6,6,5,1,0,0.0,0.0,0.0,10000.0,6-6-5-1
16,6,6,5,2,0,0.0,0.0,0.0,10000.0,6-6-5-2
17,6,6,5,3,0,0.0,0.0,0.0,10000.0,6-6-5-3
18,6,7,3,1,286,0.6080079090459714,-0.3637111239556167,2.2134831460674156,29253.713800000005,6-7-3-1
19,6,7,3,2,137,0.5677212061295106,-0.3636488479658615,2.1136363636363638,23282.919599999997,6-7-3-2
20,6,7,3,3,34,0.40608007909045973,-0.2763955990035479,3.857142857142857,18744.89000000001,6-7-3-3
21,6,7,4,1,258,0.5892239248640633,-0.33941596617386355,2.185185185185185,27334.63820000004,6-7-4-1
22,6,7,4,2,165,0.5664854176964904,-0.23989153648212994,2.3,31815.857700000037,6-7-4-2
23,6,7,4,3,42,0.5009886307464162,-0.24526364171105813,3.2,23777.596500000003,6-7-4-3
24,6,7,5,1,236,0.5865051903114187,-0.31294935642113614,2.1466666666666665,24662.69540000001,6-7-5-1
25,6,7,5,2,168,0.5645081562036579,-0.250797266351732,2.4285714285714284,32449.49820000001,6-7-5-2
26,6,7,5,3,55,0.5553633217993079,-0.2877207680382658,2.235294117647059,23390.100000000017,6-7-5-3
27,6,8,3,1,262,0.5835392980721701,-0.3065866047616308,2.046511627906977,33561.51870000001,6-8-3-1
28,6,8,3,2,168,0.5783489866534849,-0.2884653028181523,2.4285714285714284,26158.377700000034,6-8-3-2
29,6,8,3,3,48,0.4804745427582798,-0.21509712578183282,3.8,24533.93000000001,6-8-3-3
30,6,8,4,1,244,0.5825506673257538,-0.28954887568350557,2.2972972972972974,27037.05829999999,6-8-4-1
31,6,8,4,2,167,0.5605536332179931,-0.22798365914016702,2.0925925925925926,29968.277500000037,6-8-4-2
32,6,8,4,3,58,0.4434008897676718,-0.2921977632291871,2.411764705882353,16740.950000000004,6-8-4-3
33,6,8,5,1,224,0.5763717251606525,-0.27028587414793065,2.0684931506849313,28936.0981,6-8-5-1
34,6,8,5,2,176,0.5474542758279782,-0.21594413469837895,2.259259259259259,30891.60619999999,6-8-5-2
35,6,8,5,3,67,0.5477014335145823,-0.2926508532926944,2.35,18520.005400000005,6-8-5-3
36,6,9,3,1,244,0.5753830944142363,-0.26519214710208855,1.9397590361445782,29764.6098,6-9-3-1
37,6,9,3,2,166,0.5617894216510133,-0.24551462937528645,2.1923076923076925,24839.237099999984,6-9-3-2
38,6,9,3,3,62,0.5642609985170539,-0.3764994151607938,1.8181818181818181,17544.370000000003,6-9-3-3
39,6,9,4,1,228,0.5781018289668809,-0.3039711791295498,1.85,25928.589799999987,6-9-4-1
40,6,9,4,2,187,0.5590706870983687,-0.22710960659087054,2.4,32623.68680000001,6-9-4-2
41,6,9,4,3,75,0.5415224913494809,-0.2982671819856205,2.409090909090909,22369.216400000005,6-9-4-3
42,6,9,5,1,218,0.578596144340089,-0.3207164006577597,2.1142857142857143,27714.757999999987,6-9-5-1
43,6,9,5,2,185,0.5533860603064755,-0.27141290352740544,2.189655172413793,32074.147000000026,6-9-5-2
44,6,9,5,3,84,0.5130993573900148,-0.2296099847085207,2.111111111111111,22504.503399999998,6-9-5-3
45,6,10,3,1,220,0.5823035096391498,-0.2662825533119457,2.283582089552239,30043.02039999997,6-10-3-1
46,6,10,3,2,160,0.5442412259021255,-0.2861007426861301,2.1372549019607843,22001.794700000028,6-10-3-2
47,6,10,3,3,67,0.41522491349480967,-0.2744709104272909,2.35,15101.39000000001,6-10-3-3
48,6,10,4,1,214,0.5810677212061295,-0.2943744215086049,1.9315068493150684,25163.00800000003,6-10-4-1
49,6,10,4,2,177,0.5568462679189323,-0.28346561886676497,2.54,34672.21820000003,6-10-4-2
50,6,10,4,3,76,0.46737518536826494,-0.2930752642092385,1.9230769230769231,15930.245299999991,6-10-4-3
51,6,10,5,1,202,0.5711814137419674,-0.32270704626358887,2.15625,25551.745599999987,6-10-5-1
52,6,10,5,2,179,0.5570934256055363,-0.3111965428396,2.2545454545454544,30321.094200000025,6-10-5-2
53,6,10,5,3,86,0.444636678200692,-0.2685192847309465,1.6875,14369.557999999994,6-10-5-3
54,6,12,3,1,201,0.5719228868017795,-0.2114129718282305,2.2419354838709675,26390.461399999942,6-12-3-1
55,6,12,3,2,143,0.5316361838853189,-0.18704050524476978,2.108695652173913,19996.483999999993,6-12-3-2
56,6,12,3,3,70,0.38556599110232326,-0.17565512165358646,1.9166666666666667,18001.67,6-12-3-3
57,6,12,4,1,189,0.5645081562036579,-0.3638567700114716,2.15,21498.47619999999,6-12-4-1
58,6,12,4,2,155,0.5257043994068216,-0.3081210137622773,2.2291666666666665,26683.365200000026,6-12-4-2
59,6,12,4,3,82,0.4105289174493327,-0.29536389959010995,2.037037037037037,17660.389799999986,6-12-4-3
60,6,12,5,1,177,0.5612951062778052,-0.3534412099916619,2.1607142857142856,19583.140200000005,6-12-5-1
61,6,12,5,2,153,0.5484429065743944,-0.3653959012396041,1.8867924528301887,20246.74240000001,6-12-5-2
62,6,12,5,3,88,0.47380128521997034,-0.4016889385378686,1.588235294117647,12383.117100000003,6-12-5-3
63,6,14,3,1,179,0.5573405832921404,-0.27514318189716325,2.8085106382978724,27219.303299999996,6-14-3-1
64,6,14,3,2,136,0.5116164112703905,-0.3813317272255738,2.238095238095238,15635.97000000001,6-14-3-2
65,6,14,3,3,60,0.45625308947108256,-0.304546063987047,3.2857142857142856,20132.4558,6-14-3-3
66,6,14,4,1,169,0.5570934256055363,-0.3043427007509872,2.9302325581395348,23206.095700000027,6-14-4-1
67,6,14,4,2,140,0.5318833415719229,-0.3121787006568973,2.1818181818181817,20874.429000000022,6-14-4-2
68,6,14,4,3,78,0.4429065743944637,-0.29830555627203975,1.6896551724137931,14436.344199999998,6-14-4-3
69,6,14,5,1,161,0.560059317844785,-0.293892306073367,2.577777777777778,22167.749400000008,6-14-5-1
70,6,14,5,2,144,0.5425111220958971,-0.33832495262185797,1.9387755102040816,20669.328400000024,6-14-5-2
71,6,14,5,3,88,0.4500741473059812,-0.3232873998886461,1.8387096774193548,15066.284399999991,6-14-5-3
72,6,16,3,1,163,0.5598121601581809,-0.2646340549663652,3.075,26943.06639999999,6-16-3-1
73,6,16,3,2,126,0.5086505190311419,-0.2556101106592503,2.9375,22564.09550000002,6-16-3-2
74,6,16,3,3,58,0.5182896688087,-0.18213262803031358,2.625,17062.890000000007,6-16-3-3
75,6,16,4,1,155,0.5635195254572417,-0.2890800322345103,3.0789473684210527,24804.574099999998,6-16-4-1
76,6,16,4,2,132,0.5299060800790905,-0.233829925616016,2.473684210526316,26926.42680000002,6-16-4-2
77,6,16,4,3,81,0.4836875926841325,-0.29174169917700477,1.8928571428571428,16757.160000000018,6-16-4-3
78,6,16,5,1,151,0.5528917449332674,-0.2731286053160197,2.682926829268293,23770.295399999988,6-16-5-1
79,6,16,5,2,133,0.5313890261987148,-0.30430855931506284,2.0930232558139537,24596.296100000025,6-16-5-2
80,6,16,5,3,85,0.42708848245180425,-0.37320059306364645,1.9310344827586208,12350.810000000005,6-16-5-3
81,6,18,3,1,149,0.5561047948591201,-0.2746334818615614,3.257142857142857,27759.33040000001,6-18-3-1
82,6,18,3,2,119,0.5195254572417202,-0.3125291623074966,2.966666666666667,18701.228200000034,6-18-3-2
83,6,18,3,3,59,0.4826989619377163,-0.3032059379312327,2.1052631578947367,15000.929999999998,6-18-3-3
84,6,18,4,1,147,0.555857637172516,-0.30840382044369874,2.8684210526315788,25046.192600000006,6-18-4-1
85,6,18,4,2,127,0.5313890261987148,-0.2806390167318301,2.735294117647059,27937.992000000027,6-18-4-2
86,6,18,4,3,75,0.43573900148294614,-0.23982500521243952,2.125,18040.29000000001,6-18-4-3
87,6,18,5,1,140,0.5402867029164607,-0.3576965809872677,2.58974358974359,23938.843200000014,6-18-5-1
88,6,18,5,2,126,0.5133465150766189,-0.37486777112909164,2.3157894736842106,21108.786000000026,6-18-5-2
89,6,18,5,3,84,0.448838358872961,-0.3841086440655071,2.0,13933.489999999996,6-18-5-3
90,6,20,3,1,144,0.5467128027681661,-0.2812252936686874,3.3636363636363638,28157.04170000001,6-20-3-1
91,6,20,3,2,118,0.5249629263470094,-0.3196660909864467,3.2142857142857144,17390.93810000001,6-20-3-2
92,6,20,3,3,59,0.4592189817103312,-0.3249597021675966,2.2777777777777777,14615.369999999997,6-20-3-3
93,6,20,4,1,140,0.5395452298566485,-0.3013605152138767,3.242424242424242,27111.403800000007,6-20-4-1
94,6,20,4,2,120,0.513593672763223,-0.32472138806619194,3.4444444444444446,25652.82820000001,6-20-4-2
95,6,20,4,3,75,0.3741967375185368,-0.31661929133285843,2.125,16651.92000000001,6-20-4-3
96,6,20,5,1,135,0.5286702916460702,-0.34908697046378157,3.3548387096774195,27892.61000000001,6-20-5-1
97,6,20,5,2,121,0.5098863074641621,-0.41083851475271005,2.27027027027027,21751.121500000005,6-20-5-2
98,6,20,5,3,80,0.43079584775086505,-0.3555640045843582,2.8095238095238093,16538.574700000005,6-20-5-3
99,6,22,3,1,140,0.5360850222441917,-0.2554723725735643,3.6666666666666665,32113.444100000037,6-22-3-1
100,6,22,3,2,118,0.5012357884330203,-0.32253610398223165,3.3703703703703702,21985.680000000022,6-22-3-2
101,6,22,3,3,57,0.41794364804745426,-0.28485185748835196,3.0714285714285716,18949.120000000003,6-22-3-3
102,6,22,4,1,133,0.5296589223924864,-0.26066447590056807,4.115384615384615,32053.982799999998,6-22-4-1
103,6,22,4,2,115,0.49085516559565,-0.33567480544381995,3.107142857142857,23539.018300000025,6-22-4-2
104,6,22,4,3,69,0.40336134453781514,-0.38136171349690534,2.45,15796.449999999997,6-22-4-3
0,6,22,5,1,132,0.5150766188828473,-0.33835233791755287,3.7142857142857144,28033.21000000001,6-22-5-1
1,6,22,5,2,118,0.4945625308947108,-0.403498593301742,2.4705882352941178,21800.458000000028,6-22-5-2
2,6,22,5,3,72,0.3949579831932773,-0.3702275968177725,2.6,14468.209900000007,6-22-5-3
3,6,24,3,1,141,0.5336134453781513,-0.24870874636948134,3.5483870967741935,43122.61600000002,6-24-3-1
4,6,24,3,2,116,0.5180425111220959,-0.2952773670317283,3.4615384615384617,31606.930000000015,6-24-3-2
5,6,24,3,3,59,0.41794364804745426,-0.3127958634981476,4.9,23958.65,6-24-3-3
6,6,24,4,1,132,0.5207612456747405,-0.25886936289297097,4.739130434782608,34999.08239999998,6-24-4-1
7,6,24,4,2,110,0.48690064260998517,-0.3414849793283978,3.074074074074074,24825.598199999997,6-24-4-2
8,6,24,4,3,67,0.4268413247652002,-0.37849418236591065,3.1875,19277.7799,6-24-4-3
9,6,24,5,1,129,0.5175481957488878,-0.31463441512892815,4.16,34593.92999999998,6-24-5-1
10,6,24,5,2,113,0.4925852694018784,-0.3887757236741341,3.185185185185185,26189.088100000015,6-24-5-2
11,6,24,5,3,74,0.3971824023727138,-0.3782540866852066,2.5238095238095237,16861.06990000001,6-24-5-3
12,7,7,3,1,0,0.0,0.0,0.0,10000.0,7-7-3-1
13,7,7,3,2,0,0.0,0.0,0.0,10000.0,7-7-3-2
14,7,7,3,3,0,0.0,0.0,0.0,10000.0,7-7-3-3
15,7,7,4,1,0,0.0,0.0,0.0,10000.0,7-7-4-1
16,7,7,4,2,0,0.0,0.0,0.0,10000.0,7-7-4-2
17,7,7,4,3,0,0.0,0.0,0.0,10000.0,7-7-4-3
18,7,7,5,1,0,0.0,0.0,0.0,10000.0,7-7-5-1
19,7,7,5,2,0,0.0,0.0,0.0,10000.0,7-7-5-2
20,7,7,5,3,0,0.0,0.0,0.0,10000.0,7-7-5-3
21,7,8,3,1,244,0.5904597132970836,-0.2626758709904546,2.05,28960.07480000002,7-8-3-1
22,7,8,3,2,145,0.6003460207612457,-0.2623940769531119,3.8333333333333335,49103.708500000015,7-8-3-2
23,7,8,3,3,41,0.5835392980721701,-0.321829361244573,3.5555555555555554,26832.2146,7-8-3-3
24,7,8,4,1,227,0.5778546712802768,-0.35011729010128756,1.8375,25922.297399999992,7-8-4-1
25,7,8,4,2,158,0.5835392980721701,-0.21022676890591432,3.27027027027027,33952.52660000005,7-8-4-2
26,7,8,4,3,53,0.5882352941176471,-0.27359691788304746,2.7857142857142856,22945.856700000008,7-8-4-3
27,7,8,5,1,217,0.5867523479980228,-0.3387710192876013,1.855263157894737,22504.37540000001,7-8-5-1
28,7,8,5,2,166,0.5857637172516065,-0.2669535065997009,2.074074074074074,23762.14519999998,7-8-5-2
29,7,8,5,3,61,0.5467128027681661,-0.3004199063389275,2.210526315789474,16276.429999999997,7-8-5-3
30,7,9,3,1,236,0.5855165595650025,-0.28284729562832195,1.8433734939759037,27021.74870000006,7-9-3-1
31,7,9,3,2,153,0.5916955017301038,-0.34458450008572045,2.4,23498.429799999994,7-9-3-2
32,7,9,3,3,55,0.5111220958971824,-0.2958579281246339,2.4375,21152.530000000013,7-9-3-3
33,7,9,4,1,225,0.5842807711319822,-0.31623916456271167,1.922077922077922,23889.375000000007,7-9-4-1
34,7,9,4,2,172,0.6201186356895699,-0.3583638057967808,1.9655172413793103,21805.596899999993,7-9-4-2
35,7,9,4,3,67,0.5622837370242214,-0.3126478453836746,1.68,17563.72500000001,7-9-4-3
36,7,9,5,1,208,0.5753830944142363,-0.35514470589132213,1.9714285714285715,21111.264399999996,7-9-5-1
37,7,9,5,2,181,0.5850222441917944,-0.37511707692142987,1.7424242424242424,22786.745900000013,7-9-5-2
38,7,9,5,3,73,0.5148294611962432,-0.37126367387716763,2.1739130434782608,17942.544799999996,7-9-5-3
39,7,10,3,1,218,0.5887296094908552,-0.31794735927713325,2.0277777777777777,28125.76450000001,7-10-3-1
40,7,10,3,2,165,0.596885813148789,-0.39387598809552643,2.36734693877551,21559.797300000006,7-10-3-2
41,7,10,3,3,62,0.5674740484429066,-0.31781562790810636,2.1,15667.839999999997,7-10-3-3
42,7,10,4,1,208,0.5771131982204647,-0.35578370647020036,1.7733333333333334,18869.66010000005,7-10-4-1
43,7,10,4,2,181,0.5795847750865052,-0.384563493398197,1.9672131147540983,20189.538799999988,7-10-4-2
44,7,10,4,3,78,0.5679683638161147,-0.33733047041742975,2.0,18666.785500000013,7-10-4-3
45,7,10,5,1,201,0.574147305981216,-0.38328076376138515,1.7162162162162162,21071.959999999977,7-10-5-1
46,7,10,5,2,183,0.5640138408304498,-0.3657464018067003,1.6911764705882353,20999.830200000004,7-10-5-2
47,7,10,5,3,90,0.5610479485912012,-0.3237371883140965,1.8125,16409.037100000012,7-10-5-3
48,7,12,3,1,189,0.5625308947108255,-0.2698438838583283,2.2586206896551726,22433.933199999963,7-12-3-1
49,7,12,3,2,148,0.5284231339594662,-0.2814934745909162,2.5238095238095237,20057.549599999995,7-12-3-2
50,7,12,3,3,74,0.5410281759762728,-0.38065895184093596,1.4666666666666666,14677.054200000008,7-12-3-3
51,7,12,4,1,184,0.5704399406821552,-0.3535359840209725,2.1724137931034484,23388.754400000013,7-12-4-1
52,7,12,4,2,161,0.5672268907563025,-0.36093906429885386,1.7758620689655173,23534.72710000002,7-12-4-2
53,7,12,4,3,85,0.49925852694018785,-0.3580867274060567,1.65625,13552.109900000003,7-12-4-3
54,7,12,5,1,176,0.5721700444883836,-0.322340201228237,1.9830508474576272,21001.057699999983,7-12-5-1
55,7,12,5,2,154,0.5652496292634701,-0.3865729284587042,1.75,18557.162900000018,7-12-5-2
56,7,12,5,3,89,0.4807217004448838,-0.3709751926733725,1.9666666666666666,16447.35489999999,7-12-5-3
57,7,14,3,1,168,0.5684626791893228,-0.33405967431236133,2.36,20053.739099999995,7-14-3-1
58,7,14,3,2,137,0.5130993573900148,-0.25709107187038893,2.261904761904762,18828.868899999998,7-14-3-2
59,7,14,3,3,66,0.5054374691052892,-0.23768575570858994,1.75,15766.380000000023,7-14-3-3
60,7,14,4,1,161,0.5620365793376174,-0.33988111604603116,2.3541666666666665,23720.4569,7-14-4-1
61,7,14,4,2,145,0.546465645081562,-0.3213511465144513,1.9591836734693877,23151.272000000015,7-14-4-2
62,7,14,4,3,84,0.4834404349975284,-0.32933340621728113,2.230769230769231,18015.3219,7-14-4-3
63,7,14,5,1,161,0.5682155215027187,-0.36184580050634263,2.0961538461538463,20762.5925,7-14-5-1
64,7,14,5,2,147,0.5726643598615917,-0.3797686478560073,1.8823529411764706,21202.42260000003,7-14-5-2
65,7,14,5,3,101,0.5331191300049432,-0.3502602335068224,2.740740740740741,19233.316,7-14-5-3
66,7,16,3,1,154,0.5687098368759268,-0.3182647674279176,2.7560975609756095,22935.523100000017,7-16-3-1
67,7,16,3,2,126,0.5148294611962432,-0.2865941609763391,2.7058823529411766,20942.18850000003,7-16-3-2
68,7,16,3,3,70,0.49876421156697975,-0.32934355221934836,2.6842105263157894,21023.205900000026,7-16-3-3
69,7,16,4,1,149,0.5632723677706377,-0.3417592696277655,2.4651162790697674,23150.737000000052,7-16-4-1
70,7,16,4,2,134,0.5514087988136431,-0.34881873656019474,2.268292682926829,23393.721400000017,7-16-4-2
71,7,16,4,3,74,0.48912506178942167,-0.3405016508508644,2.7,15443.280000000004,7-16-4-3
72,7,16,5,1,145,0.5677212061295106,-0.37154219924299986,2.2954545454545454,21852.112999999998,7-16-5-1
73,7,16,5,2,131,0.5521502718734552,-0.4232790590146015,1.9772727272727273,20328.471800000014,7-16-5-2
74,7,16,5,3,93,0.5200197726149284,-0.3701339835622564,2.576923076923077,16823.594100000013,7-16-5-3
75,7,18,3,1,145,0.5654967869500741,-0.33491403150174326,2.4523809523809526,22795.084800000008,7-18-3-1
76,7,18,3,2,118,0.5242214532871973,-0.3571379055647702,2.806451612903226,23891.711200000016,7-18-3-2
77,7,18,3,3,68,0.5113692535837865,-0.35739402072981846,3.0,18079.10510000002,7-18-3-3
78,7,18,4,1,142,0.550914483440435,-0.3973504128468132,2.380952380952381,24036.882600000015,7-18-4-1
79,7,18,4,2,127,0.5459713297083539,-0.3690126548743987,2.6285714285714286,23708.42090000001,7-18-4-2
80,7,18,4,3,73,0.4851705388037568,-0.3892535528224443,2.8421052631578947,14092.218000000006,7-18-4-3
81,7,18,5,1,137,0.5434997528423134,-0.39549438180927404,2.5128205128205128,22878.95510000001,7-18-5-1
82,7,18,5,2,125,0.542016806722689,-0.4390854039462917,2.3783783783783785,21418.913400000012,7-18-5-2
83,7,18,5,3,89,0.4898665348492338,-0.4162491492484689,2.1785714285714284,15783.444599999993,7-18-5-3
84,7,20,3,1,140,0.5457241720217498,-0.33294870191781634,2.888888888888889,25924.517299999985,7-20-3-1
85,7,20,3,2,114,0.49703410776075135,-0.3738966938811313,2.6774193548387095,22005.501299999996,7-20-3-2
86,7,20,3,3,64,0.4782501235788433,-0.3564854357427065,2.2,13524.834000000013,7-20-3-3
87,7,20,4,1,135,0.5390509144834404,-0.39034411569249877,3.090909090909091,28304.990000000013,7-20-4-1
88,7,20,4,2,122,0.5279288185862581,-0.43934076639683384,2.4857142857142858,22330.107,7-20-4-2
89,7,20,4,3,71,0.4424122590212556,-0.42051580915151054,2.736842105263158,12706.703700000005,7-20-4-3
90,7,20,5,1,133,0.5299060800790905,-0.34021622388217154,2.911764705882353,28681.09000000004,7-20-5-1
91,7,20,5,2,122,0.5207612456747405,-0.43447509618726066,2.210526315789474,20514.425600000028,7-20-5-2
92,7,20,5,3,89,0.476767177459219,-0.41813719429830004,2.0689655172413794,15882.1047,7-20-5-3
93,7,22,3,1,133,0.5427582797825012,-0.31766081480542857,3.433333333333333,33002.18920000001,7-22-3-1
94,7,22,3,2,108,0.49110232328225406,-0.37540151096557706,2.857142857142857,24658.770799999995,7-22-3-2
95,7,22,3,3,60,0.43302026693030155,-0.3444351290138516,2.75,15623.550000000014,7-22-3-3
96,7,22,4,1,129,0.5286702916460702,-0.36607453085099567,3.161290322580645,32227.16999999999,7-22-4-1
97,7,22,4,2,115,0.5170538803756797,-0.3858641115461934,2.9655172413793105,27643.45850000001,7-22-4-2
98,7,22,4,3,74,0.4644092931290163,-0.36295552457333446,2.7,16203.274600000013,7-22-4-3
99,7,22,5,1,124,0.5261987147800297,-0.3998202087424352,3.0,26873.217600000007,7-22-5-1
100,7,22,5,2,118,0.5212555610479486,-0.45413237807168944,2.5757575757575757,22014.129800000017,7-22-5-2
101,7,22,5,3,86,0.46094908551655955,-0.45201282436992807,2.44,17167.359999999997,7-22-5-3
102,7,24,3,1,130,0.5388037567968363,-0.28776580654896633,3.814814814814815,34354.66760000001,7-24-3-1
103,7,24,3,2,104,0.49060800790904596,-0.3285515918892567,3.0,27780.1205,7-24-3-2
104,7,24,3,3,59,0.4560059317844785,-0.3529844748314745,3.5384615384615383,18170.910000000007,7-24-3-3
0,7,24,4,1,125,0.532130499258527,-0.3593884096137676,3.6296296296296298,36077.61000000001,7-24-4-1
1,7,24,4,2,111,0.5165595650024716,-0.3935784382584886,3.111111111111111,30623.837700000007,7-24-4-2
2,7,24,4,3,78,0.4602076124567474,-0.37776553099759236,3.3333333333333335,21563.46600000001,7-24-4-3
3,7,24,5,1,123,0.5279288185862581,-0.39878722045068093,3.1,29619.868600000023,7-24-5-1
4,7,24,5,2,117,0.5224913494809689,-0.44558671664229316,2.4411764705882355,25125.250900000006,7-24-5-2
5,7,24,5,3,87,0.4671280276816609,-0.43825050187787534,2.782608695652174,20327.369999999995,7-24-5-3
6,8,8,3,1,0,0.0,0.0,0.0,10000.0,8-8-3-1
7,8,8,3,2,0,0.0,0.0,0.0,10000.0,8-8-3-2
8,8,8,3,3,0,0.0,0.0,0.0,10000.0,8-8-3-3
9,8,8,4,1,0,0.0,0.0,0.0,10000.0,8-8-4-1
10,8,8,4,2,0,0.0,0.0,0.0,10000.0,8-8-4-2
11,8,8,4,3,0,0.0,0.0,0.0,10000.0,8-8-4-3
12,8,8,5,1,0,0.0,0.0,0.0,10000.0,8-8-5-1
13,8,8,5,2,0,0.0,0.0,0.0,10000.0,8-8-5-2
14,8,8,5,3,0,0.0,0.0,0.0,10000.0,8-8-5-3
15,8,9,3,1,224,0.5904597132970836,-0.33528245329287265,2.111111111111111,23906.916100000042,8-9-3-1
16,8,9,3,2,144,0.6072664359861591,-0.18339544709477243,2.5121951219512195,41976.35050000004,8-9-3-2
17,8,9,3,3,41,0.5630252100840336,-0.24574785570711796,2.727272727272727,20933.970000000005,8-9-3-3
18,8,9,4,1,212,0.5912011863568957,-0.31632889131786857,2.0285714285714285,23093.770000000022,8-9-4-1
19,8,9,4,2,143,0.5981216015818092,-0.3519387805612678,1.9183673469387754,22063.584999999985,8-9-4-2
20,8,9,4,3,60,0.6549678695007415,-0.41187553903248586,3.0,19613.079999999998,8-9-4-3
21,8,9,5,1,200,0.583044982698962,-0.30443714732995913,1.8169014084507042,22504.993399999963,8-9-5-1
22,8,9,5,2,158,0.5766188828472566,-0.27469001115897484,2.0384615384615383,26884.378200000003,8-9-5-2
23,8,9,5,3,68,0.6255561047948591,-0.2668116761687953,2.238095238095238,21642.519100000005,8-9-5-3
24,8,10,3,1,209,0.578596144340089,-0.26930572817670706,1.943661971830986,27233.513199999994,8-10-3-1
25,8,10,3,2,148,0.574147305981216,-0.40302434370655404,1.7924528301886793,20557.803600000025,8-10-3-2
26,8,10,3,3,54,0.6455758774097874,-0.2881380118860261,1.7,20076.740199999997,8-10-3-3
27,8,10,4,1,202,0.5709342560553633,-0.2542108322717094,1.9275362318840579,25889.727499999968,8-10-4-1
28,8,10,4,2,164,0.565002471576866,-0.2383601610146051,1.8771929824561404,29443.261200000037,8-10-4-2
29,8,10,4,3,67,0.5622837370242214,-0.3834337459707811,1.68,14504.547600000005,8-10-4-3
30,8,10,5,1,190,0.5768660405338606,-0.26389049353258787,1.7941176470588236,24100.644399999972,8-10-5-1
31,8,10,5,2,167,0.5825506673257538,-0.3308093066558568,1.7833333333333334,23759.34950000001,8-10-5-2
32,8,10,5,3,73,0.5731586752347998,-0.34472905818003113,1.8076923076923077,15995.080000000004,8-10-5-3
33,8,12,3,1,184,0.5751359367276322,-0.320284170922236,2.066666666666667,24285.72689999997,8-12-3-1
34,8,12,3,2,141,0.5350963914977755,-0.41830130606244786,1.6603773584905661,14057.356800000001,8-12-3-2
35,8,12,3,3,68,0.504448838358873,-0.40258816463654934,1.72,15213.700000000004,8-12-3-3
36,8,12,4,1,180,0.5756302521008403,-0.3334824269071928,2.272727272727273,24072.92369999999,8-12-4-1
37,8,12,4,2,148,0.5753830944142363,-0.39692755058475754,2.0833333333333335,18516.23110000001,8-12-4-2
38,8,12,4,3,80,0.5049431537320811,-0.32339832494611437,1.7586206896551724,16281.52499999999,8-12-4-3
39,8,12,5,1,166,0.564755313890262,-0.3469408680927584,2.074074074074074,17422.80250000003,8-12-5-1
40,8,12,5,2,146,0.5580820563519525,-0.37505905627467173,2.2444444444444445,19529.89160000001,8-12-5-2
41,8,12,5,3,90,0.495304003954523,-0.32988882337021286,2.2142857142857144,16175.065199999986,8-12-5-3
42,8,14,3,1,164,0.5714285714285714,-0.3468817301314407,2.4166666666666665,23244.1793,8-14-3-1
43,8,14,3,2,126,0.5501730103806228,-0.36741630408806053,2.15,15033.814000000018,8-14-3-2
44,8,14,3,3,67,0.5388037567968363,-0.2581446256804808,2.9411764705882355,22501.23650000001,8-14-3-3
45,8,14,4,1,158,0.5751359367276322,-0.359633136056836,2.4347826086956523,20404.013499999997,8-14-4-1
46,8,14,4,2,140,0.5716757291151755,-0.3337030994357298,2.58974358974359,22304.288800000013,8-14-4-2
47,8,14,4,3,84,0.48418190805734057,-0.2946367981968841,2.5,17631.54790000001,8-14-4-3
48,8,14,5,1,151,0.5766188828472566,-0.4063093129517045,1.9607843137254901,20022.054000000007,8-14-5-1
49,8,14,5,2,145,0.5748887790410282,-0.3703252383688836,2.2222222222222223,22136.682099999995,8-14-5-2
50,8,14,5,3,94,0.5155709342560554,-0.28544138194788904,2.357142857142857,19263.01000000002,8-14-5-3
51,8,16,3,1,148,0.5711814137419674,-0.36547596333319493,2.441860465116279,25970.3218,8-16-3-1
52,8,16,3,2,123,0.5291646070192783,-0.4180859326124685,2.236842105263158,17728.208899999998,8-16-3-2
53,8,16,3,3,69,0.449085516559565,-0.3166014045977889,2.8333333333333335,18155.025100000024,8-16-3-3
54,8,16,4,1,142,0.5734058329214039,-0.3931599898981676,2.380952380952381,21779.151700000017,8-16-4-1
55,8,16,4,2,126,0.5632723677706377,-0.420157851631219,2.230769230769231,19218.096700000013,8-16-4-2
56,8,16,4,3,81,0.5024715768660405,-0.3046929577925411,2.857142857142857,16356.664700000012,8-16-4-3
57,8,16,5,1,138,0.5674740484429066,-0.4060277998268607,2.5384615384615383,22245.341700000004,8-16-5-1
58,8,16,5,2,130,0.5593178447849728,-0.41574661601064794,2.3333333333333335,21325.169800000014,8-16-5-2
59,8,16,5,3,96,0.522985664854177,-0.33306335195653813,2.6923076923076925,21403.940000000013,8-16-5-3
60,8,18,3,1,139,0.5593178447849728,-0.33245120679024914,2.3902439024390243,24205.66870000001,8-18-3-1
61,8,18,3,2,116,0.5308947108255067,-0.40568548007326927,2.515151515151515,23147.183499999992,8-18-3-2
62,8,18,3,3,66,0.45897182402372716,-0.40339063888039356,3.7142857142857144,15351.369799999999,8-18-3-3
63,8,18,4,1,137,0.5536332179930796,-0.35716132630298114,2.425,23899.36649999999,8-18-4-1
64,8,18,4,2,121,0.5469599604547701,-0.4212672011656654,2.361111111111111,19607.991100000017,8-18-4-2
65,8,18,4,3,77,0.4634206623826001,-0.3761213493188571,3.0526315789473686,16096.26450000001,8-18-4-3
66,8,18,5,1,131,0.5561047948591201,-0.3495645941709252,2.4473684210526314,24578.388500000005,8-18-5-1
67,8,18,5,2,122,0.5422639644092931,-0.37183672005308777,2.4857142857142858,23444.451299999997,8-18-5-2
68,8,18,5,3,88,0.5118635689569946,-0.3799665868982968,2.0344827586206895,15466.220000000001,8-18-5-3
69,8,20,3,1,134,0.5459713297083539,-0.3342295328145271,3.0606060606060606,29981.11550000001,8-20-3-1
70,8,20,3,2,114,0.5160652496292635,-0.43354562371663236,2.6774193548387095,22844.625600000025,8-20-3-2
71,8,20,3,3,64,0.42980721700444885,-0.40981332763930745,3.0,13855.753800000002,8-20-3-3
72,8,20,4,1,132,0.5444883835887296,-0.3399316976850467,2.8823529411764706,32903.40890000001,8-20-4-1
73,8,20,4,2,118,0.52743450321305,-0.36968026498822437,2.933333333333333,24903.365800000025,8-20-4-2
74,8,20,4,3,73,0.46366782006920415,-0.386208936183626,2.1739130434782608,12755.743600000014,8-20-4-3
75,8,20,5,1,128,0.542016806722689,-0.3545671900344624,2.657142857142857,30085.757100000003,8-20-5-1
76,8,20,5,2,120,0.5304003954522986,-0.3741824404388617,3.0,24789.3929,8-20-5-2
77,8,20,5,3,86,0.4844290657439446,-0.3910642400777347,2.3076923076923075,15824.459999999994,8-20-5-3
78,8,22,3,1,127,0.5378151260504201,-0.3445669920830671,2.96875,31492.338500000023,8-22-3-1
79,8,22,3,2,110,0.504695996045477,-0.4148342190618211,2.9285714285714284,22951.21350000001,8-22-3-2
80,8,22,3,3,60,0.4068215521502719,-0.4441568366775953,2.5294117647058822,12018.960000000001,8-22-3-3
81,8,22,4,1,126,0.5405338606030647,-0.362970151056142,3.2,29778.538300000007,8-22-4-1
82,8,22,4,2,111,0.5116164112703905,-0.38056753049636405,2.5806451612903225,23920.039900000025,8-22-4-2
83,8,22,4,3,72,0.45501730103806226,-0.3548095304363112,3.0,14471.484000000006,8-22-4-3
84,8,22,5,1,122,0.5447355412753336,-0.351320626041545,2.696969696969697,32459.117300000013,8-22-5-1
85,8,22,5,2,114,0.5254572417202175,-0.351704317517907,3.2222222222222223,26407.422099999992,8-22-5-2
86,8,22,5,3,89,0.47973306969846763,-0.3328865853510779,3.45,21686.06,8-22-5-3
87,8,24,3,1,123,0.5392980721700444,-0.3056962574371776,3.92,35729.95859999999,8-24-3-1
88,8,24,3,2,101,0.5079090459713297,-0.36424180786509425,3.2083333333333335,24396.85300000001,8-24-3-2
89,8,24,3,3,59,0.38235294117647056,-0.37393122357624786,3.2142857142857144,13956.280100000004,8-24-3-3
90,8,24,4,1,125,0.5348492338111716,-0.3435405043700478,3.8076923076923075,39454.36960000002,8-24-4-1
91,8,24,4,2,110,0.5098863074641621,-0.3514526057278552,3.230769230769231,30171.020000000004,8-24-4-2
92,8,24,4,3,75,0.42857142857142855,-0.36566633980277163,3.6875,17887.08000000001,8-24-4-3
93,8,24,5,1,121,0.5375679683638162,-0.37057523567689915,2.78125,29866.5345,8-24-5-1
94,8,24,5,2,114,0.5304003954522986,-0.3585295790058428,2.4545454545454546,24926.668400000006,8-24-5-2
95,8,24,5,3,85,0.4898665348492338,-0.39766011752392966,3.0476190476190474,20713.299999999996,8-24-5-3
96,9,9,3,1,0,0.0,0.0,0.0,10000.0,9-9-3-1
97,9,9,3,2,0,0.0,0.0,0.0,10000.0,9-9-3-2
98,9,9,3,3,0,0.0,0.0,0.0,10000.0,9-9-3-3
99,9,9,4,1,0,0.0,0.0,0.0,10000.0,9-9-4-1
100,9,9,4,2,0,0.0,0.0,0.0,10000.0,9-9-4-2
101,9,9,4,3,0,0.0,0.0,0.0,10000.0,9-9-4-3
102,9,9,5,1,0,0.0,0.0,0.0,10000.0,9-9-5-1
103,9,9,5,2,0,0.0,0.0,0.0,10000.0,9-9-5-2
104,9,9,5,3,0,0.0,0.0,0.0,10000.0,9-9-5-3
0,9,10,3,1,205,0.587988136431043,-0.31814728859705205,1.8472222222222223,20361.185099999977,9-10-3-1
1,9,10,3,2,130,0.5884824518042511,-0.2480433260981761,2.5135135135135136,30151.240200000044,9-10-3-2
2,9,10,3,3,40,0.5912011863568957,-0.2510532116308811,1.6666666666666667,20019.96000000001,9-10-3-3
3,9,10,4,1,194,0.5803262481463174,-0.25505567201330304,1.8115942028985508,24525.301299999996,9-10-4-1
4,9,10,4,2,149,0.5958971824023727,-0.2909190779162223,1.9215686274509804,29415.01310000002,9-10-4-2
5,9,10,4,3,61,0.5578348986653485,-0.2761837489400182,1.9047619047619047,20366.710000000014,9-10-4-3
6,9,10,5,1,183,0.5823035096391498,-0.2013865703987948,1.6911764705882353,26208.949700000016,9-10-5-1
7,9,10,5,2,150,0.6173999011369253,-0.18751337175884336,2.260869565217391,35519.8867,9-10-5-2
8,9,10,5,3,64,0.6238260009886307,-0.26209633397829374,2.3684210526315788,22679.491000000013,9-10-5-3
9,9,12,3,1,180,0.5751359367276322,-0.30080203845990294,2.0508474576271185,22716.51090000002,9-12-3-1
10,9,12,3,2,144,0.5580820563519525,-0.39310486266027095,1.88,17120.206600000027,9-12-3-2
11,9,12,3,3,65,0.5032130499258527,-0.25673259175585406,1.9545454545454546,18160.940000000002,9-12-3-3
12,9,12,4,1,170,0.5815620365793376,-0.2986502924637405,1.9310344827586208,22689.69560000001,9-12-4-1
13,9,12,4,2,156,0.5746416213544241,-0.3624956225082899,1.7857142857142858,18980.26880000001,9-12-4-2
14,9,12,4,3,85,0.5622837370242214,-0.3970713094858092,1.9310344827586208,16112.2749,9-12-4-3
15,9,12,5,1,165,0.573900148294612,-0.3060441246337791,2.0,21354.25669999999,9-12-5-1
16,9,12,5,2,156,0.569451309935739,-0.34672833760636096,1.9433962264150944,20947.994,9-12-5-2
17,9,12,5,3,90,0.5076618882847257,-0.37056291328347285,2.3333333333333335,19576.309999999998,9-12-5-3
18,9,14,3,1,157,0.5771131982204647,-0.3270139536366312,2.2708333333333335,23268.623499999994,9-14-3-1
19,9,14,3,2,133,0.5484429065743944,-0.36085631823337116,1.8297872340425532,16803.54870000001,9-14-3-2
20,9,14,3,3,77,0.5116164112703905,-0.3862196777626312,2.08,16605.784700000004,9-14-3-3
21,9,14,4,1,153,0.5805734058329214,-0.36078468381230583,2.1875,20414.230000000014,9-14-4-1
22,9,14,4,2,143,0.578843302026693,-0.3227322546647098,2.1777777777777776,25084.401400000002,9-14-4-2
23,9,14,4,3,88,0.5363321799307958,-0.25305354775339034,2.142857142857143,21242.646100000013,9-14-4-3
24,9,14,5,1,149,0.583292140385566,-0.37825271107282404,2.1041666666666665,21433.961400000004,9-14-5-1
25,9,14,5,2,143,0.5781018289668809,-0.40497505314492993,2.25,22885.420299999998,9-14-5-2
26,9,14,5,3,102,0.5531389026198715,-0.3382797793156139,2.2903225806451615,22980.436300000005,9-14-5-3
27,9,16,3,1,139,0.5798319327731093,-0.38515473076098605,2.3902439024390243,20193.520000000004,9-16-3-1
28,9,16,3,2,122,0.5568462679189323,-0.4351070700756063,1.9047619047619047,18341.45610000001,9-16-3-2
29,9,16,3,3,64,0.4587246663371231,-0.41381131330696463,2.764705882352941,11953.453300000012,9-16-3-3
30,9,16,4,1,139,0.5827978250123579,-0.38387928389274345,2.475,23822.512400000003,9-16-4-1
31,9,16,4,2,131,0.5731586752347998,-0.3862675646632858,2.742857142857143,26892.760200000015,9-16-4-2
32,9,16,4,3,86,0.5264458724666337,-0.32544261059730395,2.44,15939.104500000001,9-16-4-3
33,9,16,5,1,133,0.5805734058329214,-0.37863907099353006,2.8,25242.336500000016,9-16-5-1
34,9,16,5,2,129,0.5672268907563025,-0.35812896989283755,2.6857142857142855,24726.869999999995,9-16-5-2
35,9,16,5,3,94,0.5212555610479486,-0.32798116336281075,2.2413793103448274,19154.735399999994,9-16-5-3
36,9,18,3,1,136,0.5642609985170539,-0.3974110095243475,2.4871794871794872,22739.323200000013,9-18-3-1
37,9,18,3,2,112,0.5422639644092931,-0.4262606683035897,2.393939393939394,21585.013000000024,9-18-3-2
38,9,18,3,3,62,0.4527928818586258,-0.41766853443001073,1.8181818181818181,11735.423200000003,9-18-3-3
39,9,18,4,1,132,0.5766188828472566,-0.3430889012719899,2.8823529411764706,27556.178899999988,9-18-4-1
40,9,18,4,2,123,0.5573405832921404,-0.34714604329876014,2.727272727272727,23195.4633,9-18-4-2
41,9,18,4,3,85,0.49480968858131485,-0.32276204543316833,2.0357142857142856,19162.1953,9-18-4-3
42,9,18,5,1,127,0.5625308947108255,-0.3560031341477287,2.96875,31028.398299999964,9-18-5-1
43,9,18,5,2,121,0.542016806722689,-0.31632485895030954,2.78125,25680.017300000007,9-18-5-2
44,9,18,5,3,86,0.48863074641621357,-0.3365638597601198,2.185185185185185,20005.5955,9-18-5-3
45,9,20,3,1,131,0.560059317844785,-0.3941028986184712,2.742857142857143,28050.666900000022,9-20-3-1
46,9,20,3,2,107,0.541275333662877,-0.43858394125492234,2.4516129032258065,20816.78080000001,9-20-3-2
47,9,20,3,3,68,0.4429065743944637,-0.41808263083947994,2.7777777777777777,14867.754200000008,9-20-3-3
48,9,20,4,1,129,0.560306475531389,-0.361335033296618,2.909090909090909,29625.93639999999,9-20-4-1
49,9,20,4,2,118,0.5365793376174,-0.3416933802635903,2.933333333333333,25232.179899999985,9-20-4-2
50,9,20,4,3,76,0.4935739001482946,-0.3062435815527317,2.4545454545454546,18055.41489999999,9-20-4-3
51,9,20,5,1,126,0.550914483440435,-0.3625645809775098,2.8181818181818183,30162.369999999988,9-20-5-1
52,9,20,5,2,118,0.5336134453781513,-0.30758884128812936,2.806451612903226,26179.487499999996,9-20-5-2
53,9,20,5,3,90,0.5049431537320811,-0.3244971743035658,2.3333333333333335,17943.344900000004,9-20-5-3
54,9,22,3,1,127,0.5474542758279782,-0.3619248550054637,2.96875,30247.40099999999,9-22-3-1
55,9,22,3,2,103,0.5252100840336135,-0.37550200554893565,2.433333333333333,18751.634500000015,9-22-3-2
56,9,22,3,3,65,0.46836381611468114,-0.46817396070099315,2.4210526315789473,13754.793899999991,9-22-3-3
57,9,22,4,1,121,0.5521502718734552,-0.39143425213268795,3.3214285714285716,28518.309899999986,9-22-4-1
58,9,22,4,2,112,0.5311418685121108,-0.33517273778548684,3.0,26640.700000000004,9-22-4-2
59,9,22,4,3,82,0.5009886307464162,-0.37520920898178667,2.5652173913043477,18658.76999999998,9-22-4-3
60,9,22,5,1,120,0.5410281759762728,-0.3223052646100816,2.75,34541.53629999999,9-22-5-1
61,9,22,5,2,111,0.5219970341077608,-0.3155185361300769,3.111111111111111,26468.22,9-22-5-2
62,9,22,5,3,85,0.4836875926841325,-0.3734628264390691,3.0476190476190474,20956.440000000002,9-22-5-3
63,9,24,3,1,122,0.5467128027681661,-0.33054861029070787,3.6923076923076925,30990.6995,9-24-3-1
64,9,24,3,2,101,0.5217498764211567,-0.37134212617955636,3.2083333333333335,20439.806000000004,9-24-3-2
65,9,24,3,3,61,0.4560059317844785,-0.4480139342739222,3.066666666666667,14537.629999999992,9-24-3-3
66,9,24,4,1,117,0.5444883835887296,-0.3552320978769344,3.0344827586206895,31999.11849999999,9-24-4-1
67,9,24,4,2,109,0.5360850222441917,-0.3214014318641482,3.1923076923076925,28850.890000000003,9-24-4-2
68,9,24,4,3,81,0.472071181413742,-0.31863817951118995,3.05,22496.809999999987,9-24-4-3
69,9,24,5,1,115,0.541275333662877,-0.3502811204259611,2.9655172413793105,31227.884899999997,9-24-5-1
70,9,24,5,2,109,0.5254572417202175,-0.35832837956434366,2.6333333333333333,24013.307500000006,9-24-5-2
71,9,24,5,3,86,0.4735541275333663,-0.3366536331788903,2.44,22745.779999999984,9-24-5-3
72,10,10,3,1,0,0.0,0.0,0.0,10000.0,10-10-3-1
73,10,10,3,2,0,0.0,0.0,0.0,10000.0,10-10-3-2
74,10,10,3,3,0,0.0,0.0,0.0,10000.0,10-10-3-3
75,10,10,4,1,0,0.0,0.0,0.0,10000.0,10-10-4-1
76,10,10,4,2,0,0.0,0.0,0.0,10000.0,10-10-4-2
77,10,10,4,3,0,0.0,0.0,0.0,10000.0,10-10-4-3
78,10,10,5,1,0,0.0,0.0,0.0,10000.0,10-10-5-1
79,10,10,5,2,0,0.0,0.0,0.0,10000.0,10-10-5-2
80,10,10,5,3,0,0.0,0.0,0.0,10000.0,10-10-5-3
81,10,12,3,1,174,0.5790904597132971,-0.2896741855928333,2.411764705882353,23148.454300000038,10-12-3-1
82,10,12,3,2,141,0.5531389026198715,-0.38927001627240104,2.2790697674418605,21187.21540000002,10-12-3-2
83,10,12,3,3,58,0.509391992090954,-0.35822091672952705,1.9,12453.47000000001,10-12-3-3
84,10,12,4,1,171,0.5869995056846268,-0.2728942315863405,2.3529411764705883,24270.016600000006,10-12-4-1
85,10,12,4,2,152,0.5919426594167079,-0.37856607604706755,2.3043478260869565,22642.11890000002,10-12-4-2
86,10,12,4,3,65,0.541275333662877,-0.3427248793248533,1.826086956521739,14541.140000000001,10-12-4-3
87,10,12,5,1,161,0.5756302521008403,-0.31532260662702666,1.8245614035087718,22302.188899999997,10-12-5-1
88,10,12,5,2,146,0.5637666831438458,-0.3999737325303902,2.106382978723404,19761.41839999999,10-12-5-2
89,10,12,5,3,82,0.5210084033613446,-0.3104573269187779,2.4166666666666665,20248.789999999994,10-12-5-3
90,10,14,3,1,157,0.5865051903114187,-0.35509763241064407,2.488888888888889,27774.03229999999,10-14-3-1
91,10,14,3,2,135,0.5526445872466633,-0.35168598109960564,2.292682926829268,18003.24810000001,10-14-3-2
92,10,14,3,3,80,0.5551161641127039,-0.3605414235224662,1.8571428571428572,18700.040000000005,10-14-3-3
93,10,14,4,1,152,0.5867523479980228,-0.4073019147804029,2.04,21862.284,10-14-4-1
94,10,14,4,2,142,0.5842807711319822,-0.3360420360055613,2.227272727272727,24080.848100000007,10-14-4-2
95,10,14,4,3,88,0.5249629263470094,-0.31741029649457514,2.52,22803.316199999994,10-14-4-3
96,10,14,5,1,145,0.5904597132970836,-0.4247642085329365,2.4523809523809526,22991.844,10-14-5-1
97,10,14,5,2,138,0.5729115175481958,-0.34978857846484845,2.2093023255813953,24589.398100000006,10-14-5-2
98,10,14,5,3,93,0.537073652990608,-0.29214148355756847,2.4444444444444446,20768.47139999997,10-14-5-3
99,10,16,3,1,140,0.5902125556104795,-0.39479474584935415,2.58974358974359,23311.33290000002,10-16-3-1
100,10,16,3,2,126,0.5659911023232822,-0.3060348435932575,3.064516129032258,28964.211299999995,10-16-3-2
101,10,16,3,3,72,0.5215027187345527,-0.3399681291983566,3.235294117647059,23280.41000000001,10-16-3-3
102,10,16,4,1,136,0.5941670785961444,-0.40257651790547017,3.0,24343.44510000001,10-16-4-1
103,10,16,4,2,128,0.5798319327731093,-0.3405337699778882,3.413793103448276,27514.19000000003,10-16-4-2
104,10,16,4,3,87,0.5113692535837865,-0.3087853025585815,2.625,21285.085999999992,10-16-4-3
0,10,16,5,1,135,0.587988136431043,-0.4208558390859905,2.857142857142857,22939.626100000005,10-16-5-1
1,10,16,5,2,129,0.5795847750865052,-0.31279496076838664,3.161290322580645,25998.652999999988,10-16-5-2
2,10,16,5,3,95,0.5553633217993079,-0.29385993152764,2.8,23120.316599999976,10-16-5-3
3,10,18,3,1,131,0.578596144340089,-0.40995292377418213,2.8529411764705883,22843.206599999994,10-18-3-1
4,10,18,3,2,114,0.5489372219476025,-0.37266178197683325,3.56,23549.809999999998,10-18-3-2
5,10,18,3,3,73,0.47157686604053384,-0.3671549017274367,2.8421052631578947,20985.419999999973,10-18-3-3
6,10,18,4,1,128,0.5719228868017795,-0.3827002895496016,2.764705882352941,27670.678300000007,10-18-4-1
7,10,18,4,2,116,0.5642609985170539,-0.2930617810362008,3.64,29143.749999999996,10-18-4-2
8,10,18,4,3,85,0.5306475531389027,-0.3988207641649442,2.4,18067.05999999998,10-18-4-3
9,10,18,5,1,127,0.5692041522491349,-0.3468558077496585,2.96875,28160.921500000015,10-18-5-1
10,10,18,5,2,122,0.5657439446366782,-0.29722619143088325,2.8125,25873.227399999996,10-18-5-2
11,10,18,5,3,97,0.5388037567968363,-0.26673289185238513,2.5925925925925926,25742.16689999999,10-18-5-3
12,10,20,3,1,124,0.5625308947108255,-0.43067481589402135,3.1333333333333333,27310.899299999997,10-20-3-1
13,10,20,3,2,105,0.5224913494809689,-0.4028820316063848,3.772727272727273,24862.46000000001,10-20-3-2
14,10,20,3,3,68,0.4957983193277311,-0.3994638382481495,3.25,20178.959999999995,10-20-3-3
15,10,20,4,1,122,0.5612951062778052,-0.39408218252903976,3.206896551724138,29191.2935,10-20-4-1
16,10,20,4,2,112,0.5504201680672269,-0.23876904572037289,4.333333333333333,33729.240000000005,10-20-4-2
17,10,20,4,3,80,0.5449826989619377,-0.3372102552144979,3.0,22981.509999999973,10-20-4-3
18,10,20,5,1,121,0.5659911023232822,-0.3309518261298738,3.6538461538461537,34541.93820000001,10-20-5-1
19,10,20,5,2,115,0.5630252100840336,-0.24458333408370944,3.6,33995.909999999996,10-20-5-2
20,10,20,5,3,96,0.5266930301532378,-0.34299580924616135,3.3636363636363638,24560.98999999999,10-20-5-3
21,10,22,3,1,123,0.5615422639644093,-0.42603048743222804,3.392857142857143,30913.439400000007,10-22-3-1
22,10,22,3,2,103,0.5187839841819081,-0.35292481539250214,3.9047619047619047,29958.237500000025,10-22-3-2
23,10,22,3,3,70,0.4607019278299555,-0.39414388044156395,3.6666666666666665,24524.609999999993,10-22-3-3
24,10,22,4,1,117,0.551161641127039,-0.30913666056210076,3.875,40310.54800000002,10-22-4-1
25,10,22,4,2,109,0.5390509144834404,-0.2931223042356209,3.9545454545454546,31152.415000000015,10-22-4-2
26,10,22,4,3,77,0.45402867029164606,-0.3219874454415259,2.6666666666666665,21157.409999999993,10-22-4-3
27,10,22,5,1,116,0.5477014335145823,-0.35035007158830034,4.043478260869565,38617.459299999995,10-22-5-1
28,10,22,5,2,111,0.5388037567968363,-0.26238147451771127,3.8260869565217392,31809.159999999985,10-22-5-2
29,10,22,5,3,92,0.5289174493326743,-0.3692194142103055,3.1818181818181817,25971.259999999984,10-22-5-3
30,10,24,3,1,118,0.551161641127039,-0.41728288818954556,3.2142857142857144,29889.786599999985,10-24-3-1
31,10,24,3,2,102,0.5242214532871973,-0.36500730072644466,4.368421052631579,31259.39500000002,10-24-3-2
32,10,24,3,3,66,0.430548690064261,-0.4333820032174585,4.076923076923077,18873.90999999999,10-24-3-3
33,10,24,4,1,114,0.5462184873949579,-0.3456028625554026,3.56,33177.4973,10-24-4-1
34,10,24,4,2,107,0.5380622837370242,-0.31621667472572706,3.8636363636363638,30443.64000000001,10-24-4-2
35,10,24,4,3,81,0.48591201186356897,-0.35200324867802263,3.5,26953.309999999987,10-24-4-3
36,10,24,5,1,110,0.5437469105289174,-0.3592989452121505,4.238095238095238,32968.5595,10-24-5-1
37,10,24,5,2,107,0.5469599604547701,-0.2663914648362198,3.8636363636363638,31036.204999999998,10-24-5-2
38,10,24,5,3,89,0.5219970341077608,-0.369060764237436,3.45,22913.979999999985,10-24-5-3
39,11,12,3,1,171,0.5840336134453782,-0.34771441719831636,2.2884615384615383,22476.286099999987,11-12-3-1
40,11,12,3,2,117,0.6314878892733564,-0.4269332881827738,2.0789473684210527,18892.697500000013,11-12-3-2
41,11,12,3,3,43,0.5882352941176471,-0.40460353264880544,1.8666666666666667,14171.759999999998,11-12-3-3
42,11,12,4,1,165,0.5887296094908552,-0.30450206116568074,2.173076923076923,25360.564000000002,11-12-4-1
43,11,12,4,2,131,0.6440929312901631,-0.38527200173267023,2.046511627906977,18246.03550000002,11-12-4-2
44,11,12,4,3,56,0.5180425111220959,-0.27687971292209707,2.111111111111111,16648.06360000001,11-12-4-3
45,11,12,5,1,159,0.5835392980721701,-0.37302683231161415,1.9444444444444444,22769.661199999988,11-12-5-1
46,11,12,5,2,142,0.5827978250123579,-0.4143200072617398,1.8979591836734695,18273.960000000014,11-12-5-2
47,11,12,5,3,71,0.5459713297083539,-0.3400078318509216,1.7307692307692308,15235.114399999999,11-12-5-3
48,11,14,3,1,152,0.5941670785961444,-0.42810930436265565,1.9803921568627452,18402.525500000003,11-14-3-1
49,11,14,3,2,125,0.5768660405338606,-0.3139643685377728,1.7777777777777777,15245.974300000018,11-14-3-2
50,11,14,3,3,69,0.5766188828472566,-0.4126691698588186,1.76,12088.911799999985,11-14-3-3
51,11,14,4,1,148,0.5912011863568957,-0.43509224113117917,2.441860465116279,20611.73849999999,11-14-4-1
52,11,14,4,2,133,0.574147305981216,-0.3305593291246935,2.2439024390243905,22584.586400000015,11-14-4-2
53,11,14,4,3,73,0.5210084033613446,-0.3118929948204433,2.1739130434782608,16920.302999999993,11-14-4-3
54,11,14,5,1,141,0.5860108749382106,-0.43409726894370265,2.4390243902439024,22719.145000000015,11-14-5-1
55,11,14,5,2,133,0.5850222441917944,-0.36497549682083147,2.2439024390243905,25467.364799999996,11-14-5-2
56,11,14,5,3,90,0.537320810677212,-0.3191385320087194,2.3333333333333335,14943.652799999985,11-14-5-3
57,11,16,3,1,137,0.5929312901631241,-0.3955553165343236,3.1515151515151514,24864.533600000017,11-16-3-1
58,11,16,3,2,124,0.5813148788927336,-0.3647672047847457,2.6470588235294117,21573.016200000002,11-16-3-2
59,11,16,3,3,76,0.5331191300049432,-0.34948234818541174,3.75,21789.316200000005,11-16-3-3
60,11,16,4,1,135,0.5835392980721701,-0.33390936704118146,3.090909090909091,29268.047599999994,11-16-4-1
61,11,16,4,2,125,0.5753830944142363,-0.2910179883116894,3.1666666666666665,29738.77840000003,11-16-4-2
62,11,16,4,3,89,0.5410281759762728,-0.38372658474999255,3.0454545454545454,20388.675899999984,11-16-4-3
63,11,16,5,1,132,0.583044982698962,-0.32592090383349087,2.7714285714285714,29069.75759999998,11-16-5-1
64,11,16,5,2,127,0.5835392980721701,-0.2923007086876844,2.4324324324324325,26725.365600000016,11-16-5-2
65,11,16,5,3,106,0.5813148788927336,-0.24931486330552138,2.925925925925926,22912.856599999974,11-16-5-3
66,11,18,3,1,130,0.578843302026693,-0.36920381271536806,2.823529411764706,27980.453200000004,11-18-3-1
67,11,18,3,2,116,0.5808205635195255,-0.30597018953125427,3.0,24454.79720000001,11-18-3-2
68,11,18,3,3,81,0.5521502718734552,-0.3313217208430491,3.764705882352941,24635.636999999984,11-18-3-3
69,11,18,4,1,128,0.5743944636678201,-0.3712648249018855,2.764705882352941,30385.89380000001,11-18-4-1
70,11,18,4,2,121,0.5588235294117647,-0.26743527603843253,3.033333333333333,30569.428800000016,11-18-4-2
71,11,18,4,3,94,0.5254572417202175,-0.2672737477122307,3.0869565217391304,26304.017200000002,11-18-4-3
72,11,18,5,1,127,0.5674740484429066,-0.3261640865833316,3.3793103448275863,33003.58249999998,11-18-5-1
73,11,18,5,2,122,0.5617894216510133,-0.2275792602228634,3.357142857142857,37424.89,11-18-5-2
74,11,18,5,3,99,0.5486900642609985,-0.26713561277433434,2.6666666666666665,25049.279999999995,11-18-5-3
75,11,20,3,1,120,0.5677212061295106,-0.3391414409314391,3.6153846153846154,34986.4435,11-20-3-1
76,11,20,3,2,110,0.5516559565002471,-0.2633326732638569,3.5833333333333335,30172.18,11-20-3-2
77,11,20,3,3,71,0.4634206623826001,-0.41394755949360795,3.176470588235294,20435.37999999999,11-20-3-3
78,11,20,4,1,120,0.5612951062778052,-0.30460729157148647,3.4444444444444446,35816.44100000001,11-20-4-1
79,11,20,4,2,112,0.5541275333662877,-0.2515110803512057,3.48,36526.959999999985,11-20-4-2
80,11,20,4,3,89,0.5084033613445378,-0.4533914204677135,2.7083333333333335,17102.94,11-20-4-3
81,11,20,5,1,119,0.5608007909045971,-0.3263272698052543,3.76,35717.91880000001,11-20-5-1
82,11,20,5,2,113,0.5543746910528917,-0.2614913131118359,3.9130434782608696,36485.36999999998,11-20-5-2
83,11,20,5,3,99,0.5331191300049432,-0.40687879365056584,3.125,24723.1875,11-20-5-3
84,11,22,3,1,118,0.560306475531389,-0.29772226759852183,3.5384615384615383,40640.1784,11-22-3-1
85,11,22,3,2,107,0.5531389026198715,-0.2999752840448132,4.095238095238095,31493.407499999994,11-22-3-2
86,11,22,3,3,67,0.4666337123084528,-0.3961104635057329,2.7222222222222223,18677.67999999999,11-22-3-3
87,11,22,4,1,115,0.5608007909045971,-0.33328687473428165,4.476190476190476,41045.08840000002,11-22-4-1
88,11,22,4,2,107,0.5548690064260998,-0.25215217871759515,4.944444444444445,37922.9,11-22-4-2
89,11,22,4,3,88,0.5,-0.4130008520011833,2.8260869565217392,22174.739999999998,11-22-4-3
90,11,22,5,1,114,0.5630252100840336,-0.3360289180322166,4.428571428571429,38096.439099999996,11-22-5-1
91,11,22,5,2,108,0.5583292140385566,-0.25466688780015506,3.909090909090909,38254.344999999965,11-22-5-2
92,11,22,5,3,96,0.5291646070192783,-0.38431029130352207,2.4285714285714284,23586.489999999987,11-22-5-3
93,11,24,3,1,111,0.5541275333662877,-0.3084374513678722,4.285714285714286,35958.79029999998,11-24-3-1
94,11,24,3,2,101,0.5519031141868512,-0.29319869249244074,5.3125,32769.20749999998,11-24-3-2
95,11,24,3,3,75,0.4782501235788433,-0.4045680093002922,4.0,21340.752000000004,11-24-3-3
96,11,24,4,1,108,0.5434997528423134,-0.3293120069216779,5.352941176470588,34636.75999999999,11-24-4-1
97,11,24,4,2,101,0.5363321799307958,-0.2498538615979576,4.315789473684211,31187.94750000002,11-24-4-2
98,11,24,4,3,84,0.4836875926841325,-0.41367111675503654,2.652173913043478,19656.352099999993,11-24-4-3
99,11,24,5,1,108,0.5430054374691052,-0.36567620678182294,4.4,30065.15849999999,11-24-5-1
100,11,24,5,2,101,0.5400395452298566,-0.26398083495407315,3.8095238095238093,30765.725000000006,11-24-5-2
101,11,24,5,3,90,0.5126050420168067,-0.39860687090830005,2.9130434782608696,21990.961999999992,11-24-5-3
