,fast,slow,sig,delay,numSell,exposure,drawdown,winLoss,value,zzz
0,3,6,3,1,347,0.6208601087493821,-0.2832960344824439,2.4356435643564356,59095.45080000004,3-6-3-1
1,3,6,3,2,117,0.5768660405338606,-0.20271752054860123,2.774193548387097,30494.255,3-6-3-2
2,3,6,3,3,36,0.536826495304004,-0.2683294646565837,2.6,33934.84000000002,3-6-3-3
3,3,6,4,1,308,0.6213544241225902,-0.35576720101216947,2.5402298850574714,50697.11999999998,3-6-4-1
4,3,6,4,2,142,0.6043005437469106,-0.24256512995138993,2.736842105263158,38523.26639999998,3-6-4-2
5,3,6,4,3,40,0.6228373702422145,-0.37852298766003073,2.076923076923077,23545.57,3-6-4-3
6,3,6,5,1,268,0.6094908551655956,-0.3575156662063524,2.7222222222222223,39954.74089999998,3-6-5-1
7,3,6,5,2,146,0.5657439446366782,-0.299805594901445,2.4761904761904763,27960.465000000004,3-6-5-2
8,3,6,5,3,38,0.5061789421651013,-0.2612209221174045,2.1666666666666665,23266.185000000012,3-6-5-3
9,3,7,3,1,322,0.6151754819574888,-0.2940560004974868,2.5,54092.02020000001,3-7-3-1
10,3,7,3,2,123,0.5751359367276322,-0.2272481774513198,2.324324324324324,35995.469999999994,3-7-3-2
11,3,7,3,3,39,0.5299060800790905,-0.19800154951155896,3.875,32608.405,3-7-3-3
12,3,7,4,1,293,0.6223430548690064,-0.35320325007758013,2.617283950617284,51365.625899999926,3-7-4-1
13,3,7,4,2,144,0.5756302521008403,-0.21315351706426294,2.6,32527.805,3-7-4-2
14,3,7,4,3,39,0.4592189817103312,-0.23180548253403843,2.25,26630.265000000003,3-7-4-3
15,3,7,5,1,259,0.6198714780029659,-0.370789031777752,2.5,38503.66819999998,3-7-5-1
16,3,7,5,2,155,0.5454770143351458,-0.2696166312082987,2.4444444444444446,31799.745000000028,3-7-5-2
17,3,7,5,3,44,0.46218487394957986,-0.34812669633295756,1.9333333333333333,17873.019999999993,3-7-5-3
18,3,8,3,1,304,0.6134453781512605,-0.31759282104303577,2.5348837209302326,54612.91830000001,3-8-3-1
19,3,8,3,2,122,0.5627780523974295,-0.2599370199529491,2.128205128205128,20516.214999999993,3-8-3-2
20,3,8,3,3,36,0.47750865051903113,-0.2538027089908413,2.6,23490.99999999999,3-8-3-3
21,3,8,4,1,274,0.6122095897182402,-0.3534668022315502,2.7027027027027026,46081.229000000014,3-8-4-1
22,3,8,4,2,155,0.5474542758279782,-0.24188340386254986,2.7804878048780486,32732.695000000007,3-8-4-2
23,3,8,4,3,47,0.4957983193277311,-0.30302298296629515,1.9375,25881.015,3-8-4-3
24,3,8,5,1,247,0.6272862086010875,-0.3703133972540768,2.8,50358.601200000005,3-8-5-1
25,3,8,5,2,160,0.5743944636678201,-0.26377110978573853,2.902439024390244,41438.69,3-8-5-2
26,3,8,5,3,46,0.4552644587246663,-0.3645243130328296,1.875,14693.564999999997,3-8-5-3
27,3,9,3,1,283,0.6045477014335146,-0.3270288567031954,2.824324324324324,52012.269000000044,3-9-3-1
28,3,9,3,2,130,0.5192782995551162,-0.22044132874249817,2.3333333333333335,33324.155000000006,3-9-3-2
29,3,9,3,3,39,0.44191794364804743,-0.25430867244634153,2.5454545454545454,23184.64500000001,3-9-3-3
30,3,9,4,1,252,0.6154226396440929,-0.3728509358969016,2.7058823529411766,48332.216399999976,3-9-4-1
31,3,9,4,2,149,0.536826495304004,-0.25047975033244396,2.6341463414634148,32765.420000000013,3-9-4-2
32,3,9,4,3,42,0.49555116164112706,-0.30558247206913847,2.230769230769231,31192.569999999996,3-9-4-3
33,3,9,5,1,231,0.629510627780524,-0.3637763481616667,2.7868852459016393,53100.624999999985,3-9-5-1
34,3,9,5,2,163,0.606524962926347,-0.28784148512088215,2.7045454545454546,51069.94000000002,3-9-5-2
35,3,9,5,3,55,0.5538803756796836,-0.28421007489701344,2.4375,27078.950000000023,3-9-5-3
36,3,10,3,1,268,0.5946613939693525,-0.33811487245211863,3.0606060606060606,53026.05680000003,3-10-3-1
37,3,10,3,2,136,0.5444883835887296,-0.18282613126624958,2.4,36142.58999999998,3-10-3-2
38,3,10,3,3,38,0.42115669797330696,-0.25412900133300137,2.4545454545454546,19853.48879999999,3-10-3-3
39,3,10,4,1,237,0.625061789421651,-0.3731427916069197,2.590909090909091,44356.176400000004,3-10-4-1
40,3,10,4,2,144,0.5711814137419674,-0.25782190938166566,2.6923076923076925,37503.425,3-10-4-2
41,3,10,4,3,46,0.45575877409787446,-0.3722682716255537,1.5555555555555556,21587.139999999974,3-10-4-3
42,3,10,5,1,218,0.6314878892733564,-0.35889664229440765,2.824561403508772,45184.15140000001,3-10-5-1
43,3,10,5,2,151,0.610726643598616,-0.2604252687772253,2.871794871794872,62040.92999999987,3-10-5-2
44,3,10,5,3,52,0.5066732575383095,-0.2708909083985246,3.0,22559.24059999999,3-10-5-3
45,3,12,3,1,234,0.6186356895699456,-0.3003922333221557,2.9661016949152543,53645.61200000001,3-12-3-1
46,3,12,3,2,125,0.5679683638161147,-0.30420092610399335,2.2051282051282053,28213.909999999967,3-12-3-2
47,3,12,3,3,39,0.49110232328225406,-0.2901603483914989,1.6,18811.91999999997,3-12-3-3
48,3,12,4,1,214,0.6238260009886307,-0.37377455975496193,3.1153846153846154,46921.90599999993,3-12-4-1
49,3,12,4,2,137,0.5672268907563025,-0.2810390208227376,2.425,41895.53999999996,3-12-4-2
50,3,12,4,3,48,0.472071181413742,-0.18829588574835995,1.8235294117647058,17785.18000000001,3-12-4-3
51,3,12,5,1,185,0.6243203163618388,-0.3464048389182682,3.111111111111111,47264.94379999998,3-12-5-1
52,3,12,5,2,137,0.5808205635195255,-0.26411273629983684,3.0294117647058822,56278.14549999997,3-12-5-2
53,3,12,5,3,47,0.44092931290163123,-0.2530782943302838,2.1333333333333333,19661.500799999994,3-12-5-3
54,3,14,3,1,217,0.6191300049431537,-0.32973128395336504,2.9454545454545453,54460.476799999946,3-14-3-1
55,3,14,3,2,120,0.5627780523974295,-0.34426010320372374,2.3333333333333335,24470.359999999993,3-14-3-2
56,3,14,3,3,42,0.481463173504696,-0.2817514938964215,2.0,22880.395800000002,3-14-3-3
57,3,14,4,1,193,0.6230845279288186,-0.3742474242479244,3.2888888888888888,45895.028199999935,3-14-4-1
58,3,14,4,2,132,0.5570934256055363,-0.28113732374608225,3.0,51161.76999999998,3-14-4-2
59,3,14,4,3,38,0.49085516559565,-0.1668597539143086,2.1666666666666665,18042.365,3-14-4-3
60,3,14,5,1,173,0.6178942165101334,-0.38589382083581797,3.119047619047619,45791.23340000002,3-14-5-1
61,3,14,5,2,132,0.5793376173999011,-0.26414032094684636,2.8823529411764706,47179.958400000025,3-14-5-2
62,3,14,5,3,45,0.4876421156697973,-0.2418628205945684,2.2142857142857144,25558.444999999974,3-14-5-3
63,3,16,3,1,200,0.6089965397923875,-0.3297684677202055,3.347826086956522,57849.19079999998,3-16-3-1
64,3,16,3,2,114,0.5635195254572417,-0.3556240212224912,2.6774193548387095,26284.29,3-16-3-2
65,3,16,3,3,39,0.50914483440435,-0.29469513816591036,1.7857142857142858,22309.129999999994,3-16-3-3
66,3,16,4,1,178,0.6176470588235294,-0.3826384157382142,3.45,46158.29719999999,3-16-4-1
67,3,16,4,2,128,0.5378151260504201,-0.2844410204424321,2.764705882352941,40111.44999999998,3-16-4-2
68,3,16,4,3,40,0.5259515570934256,-0.2918595613827593,1.6666666666666667,17406.444999999996,3-16-4-3
69,3,16,5,1,163,0.6124567474048442,-0.39090949431155053,3.5277777777777777,50627.43919999999,3-16-5-1
70,3,16,5,2,130,0.5795847750865052,-0.2640673275315953,2.7142857142857144,43443.17050000003,3-16-5-2
71,3,16,5,3,41,0.38457736035590706,-0.17696216959547031,4.125,28479.210000000014,3-16-5-3
72,3,18,3,1,186,0.601581809194266,-0.34033880125924665,3.227272727272727,46301.13739999998,3-18-3-1
73,3,18,3,2,109,0.5447355412753336,-0.34235073545045164,2.40625,23768.88500000001,3-18-3-2
74,3,18,3,3,37,0.5111220958971824,-0.2975804979744974,1.8461538461538463,21107.82999999999,3-18-3-3
75,3,18,4,1,168,0.6025704399406822,-0.3781912259997794,3.5405405405405403,42407.57319999996,3-18-4-1
76,3,18,4,2,118,0.5269401878398419,-0.28421592640914073,2.806451612903226,36433.48000000001,3-18-4-2
77,3,18,4,3,45,0.4822046465645082,-0.2429772558041216,2.4615384615384617,21297.015,3-18-4-3
78,3,18,5,1,155,0.6035590706870984,-0.390736266513553,3.5588235294117645,49075.713199999984,3-18-5-1
79,3,18,5,2,129,0.5778546712802768,-0.32624944026676644,3.03125,47868.21259999996,3-18-5-2
80,3,18,5,3,44,0.38185862580326246,-0.2248989535317855,3.0,28425.61580000001,3-18-5-3
81,3,20,3,1,175,0.5949085516559565,-0.31223517160957504,3.6052631578947367,45621.07579999998,3-20-3-1
82,3,20,3,2,106,0.5318833415719229,-0.3146957827432784,2.4193548387096775,22814.87000000001,3-20-3-2
83,3,20,3,3,40,0.5192782995551162,-0.25751195294890916,1.8571428571428572,22060.54999999998,3-20-3-3
84,3,20,4,1,165,0.5973801285219971,-0.3831509574458981,3.5833333333333335,45754.13179999998,3-20-4-1
85,3,20,4,2,121,0.5163124073158675,-0.2843593642642356,2.78125,39466.99999999999,3-20-4-2
86,3,20,4,3,40,0.4644092931290163,-0.22901555728134151,2.6363636363636362,25062.989999999998,3-20-4-3
87,3,20,5,1,153,0.5973801285219971,-0.37457959466481927,3.6363636363636362,54865.0608,3-20-5-1
88,3,20,5,2,128,0.5632723677706377,-0.33653039433378185,3.129032258064516,50535.27779999999,3-20-5-2
89,3,20,5,3,41,0.32006920415224915,-0.25823243074422103,3.1,22422.356600000003,3-20-5-3
90,3,22,3,1,175,0.6040533860603065,-0.31231407030700914,3.1666666666666665,45443.903000000006,3-22-3-1
91,3,22,3,2,107,0.5449826989619377,-0.3052827446070949,2.4516129032258065,27850.91000000002,3-22-3-2
92,3,22,3,3,42,0.5098863074641621,-0.23751774486005245,2.5,27474.439999999977,3-22-3-3
93,3,22,4,1,158,0.6010874938210579,-0.3834896977876727,3.6470588235294117,47789.813599999994,3-22-4-1
94,3,22,4,2,115,0.5306475531389027,-0.2846532322614057,2.8333333333333335,37032.82500000001,3-22-4-2
95,3,22,4,3,42,0.430548690064261,-0.21087745113252768,2.5,19227.355,3-22-4-3
96,3,22,5,1,147,0.6010874938210579,-0.3779754705132245,3.59375,52426.572400000034,3-22-5-1
97,3,22,5,2,120,0.5701927829955512,-0.3360305822880197,2.5294117647058822,42393.4314,3-22-5-2
98,3,22,5,3,40,0.3652990608007909,-0.23443075775636646,2.3333333333333335,28585.246800000008,3-22-5-3
99,3,24,3,1,167,0.6055363321799307,-0.2984516367862833,3.282051282051282,48742.68559999998,3-24-3-1
100,3,24,3,2,106,0.555610479485912,-0.27606047289185276,2.4193548387096775,30497.13500000005,3-24-3-2
101,3,24,3,3,41,0.5365793376174,-0.23765210235379994,2.727272727272727,28860.994999999977,3-24-3-3
102,3,24,4,1,152,0.6109738012852199,-0.3591877713330529,3.606060606060606,51985.33999999999,3-24-4-1
103,3,24,4,2,119,0.560306475531389,-0.29577535035600255,2.606060606060606,40536.384999999966,3-24-4-2
104,3,24,4,3,45,0.44859120118635687,-0.21097438752368447,2.75,18182.900000000016,3-24-4-3
0,3,24,5,1,137,0.6127039050914483,-0.4147389928513235,3.1515151515151514,47982.59800000001,3-24-5-1
1,3,24,5,2,115,0.583292140385566,-0.39955174853689746,2.59375,41782.458799999986,3-24-5-2
2,3,24,5,3,45,0.37271379139891253,-0.2345304999260933,2.4615384615384617,46243.438399999985,3-24-5-3
3,4,6,3,1,337,0.6327236777063767,-0.32794375176848284,2.1203703703703702,38445.82519999995,4-6-3-1
4,4,6,3,2,160,0.5810677212061295,-0.2683170106111271,2.6363636363636362,31694.54240000001,4-6-3-2
5,4,6,3,3,33,0.546465645081562,-0.19905335421757778,4.5,42239.23999999999,4-6-3-3
6,4,6,4,1,301,0.6164112703905091,-0.31769347512932544,2.04040404040404,34139.407500000016,4-6-4-1
7,4,6,4,2,174,0.5761245674740484,-0.3000476739553339,2.2222222222222223,44473.638299999984,4-6-4-2
8,4,6,4,3,34,0.5350963914977755,-0.2161666388481301,5.8,40122.87500000004,4-6-4-3
9,4,6,5,1,268,0.6161641127039051,-0.34123097794172286,2.5733333333333333,45535.394999999946,4-6-5-1
10,4,6,5,2,168,0.5852694018783984,-0.3066816679617996,2.652173913043478,67587.53430000006,4-6-5-2
11,4,6,5,3,43,0.5936727632229363,-0.2747244123506627,2.0714285714285716,37658.39499999998,4-6-5-3
12,4,7,3,1,303,0.6243203163618388,-0.3333555879338175,2.32967032967033,48217.2549999999,4-7-3-1
13,4,7,3,2,186,0.574147305981216,-0.2651909275611415,3.0434782608695654,47860.18,4-7-3-2
14,4,7,3,3,40,0.5180425111220959,-0.2639171164441803,3.4444444444444446,35484.109999999986,4-7-3-3
15,4,7,4,1,279,0.6169055857637172,-0.36334684444120896,2.5316455696202533,47259.26529999994,4-7-4-1
16,4,7,4,2,181,0.5736529906080079,-0.236468825530146,2.549019607843137,49112.91519999999,4-7-4-2
17,4,7,4,3,49,0.5244686109738013,-0.2374339740776322,3.4545454545454546,42726.059999999954,4-7-4-3
18,4,7,5,1,257,0.6213544241225902,-0.37976178605212707,2.3815789473684212,41812.74419999997,4-7-5-1
19,4,7,5,2,176,0.6191300049431537,-0.3081300574901958,2.6666666666666665,43234.716,4-7-5-2
20,4,7,5,3,50,0.5884824518042511,-0.2594393035711447,1.631578947368421,27514.819999999996,4-7-5-3
21,4,8,3,1,280,0.6164112703905091,-0.35795236309168404,2.58974358974359,37954.235399999954,4-8-3-1
22,4,8,3,2,166,0.5939199209095403,-0.26349190359868013,3.048780487804878,48753.02500000003,4-8-3-2
23,4,8,3,3,43,0.38185862580326246,-0.28394648042984943,1.8666666666666667,17226.725000000006,4-8-3-3
24,4,8,4,1,268,0.6292634700939199,-0.37452744525851006,2.392405063291139,43334.52079999998,4-8-4-1
25,4,8,4,2,174,0.5904597132970836,-0.26492973566227684,2.8666666666666667,38300.0557,4-8-4-2
26,4,8,4,3,54,0.4930795847750865,-0.23698156553724345,2.176470588235294,27080.445000000007,4-8-4-3
27,4,8,5,1,243,0.625061789421651,-0.3630441658706494,2.4714285714285715,46678.071500000005,4-8-5-1
28,4,8,5,2,170,0.6218487394957983,-0.2196535378599297,2.617021276595745,42532.36769999998,4-8-5-2
29,4,8,5,3,56,0.5056846267918932,-0.18273020577434235,4.090909090909091,43563.40600000001,4-8-5-3
30,4,9,3,1,272,0.6248146317350469,-0.3410291771721139,2.6266666666666665,47724.627400000056,4-9-3-1
31,4,9,3,2,159,0.5800790904597133,-0.29575250637717265,2.8780487804878048,33698.11219999999,4-9-3-2
32,4,9,3,3,47,0.4107760751359367,-0.3116813742512967,2.1333333333333333,17636.210000000006,4-9-3-3
33,4,9,4,1,256,0.6233316856154226,-0.34134734549676093,2.5555555555555554,43925.627700000034,4-9-4-1
34,4,9,4,2,168,0.5867523479980228,-0.22614430414188022,2.8181818181818183,39488.497799999976,4-9-4-2
35,4,9,4,3,57,0.5405338606030647,-0.306221996324823,3.3846153846153846,29372.504999999986,4-9-4-3
36,4,9,5,1,226,0.6275333662876915,-0.34471327820719017,2.7049180327868854,41445.37530000002,4-9-5-1
37,4,9,5,2,164,0.606277805239743,-0.21949439259629905,2.6444444444444444,42664.11259999996,4-9-5-2
38,4,9,5,3,59,0.5210084033613446,-0.35694512802660133,3.5384615384615383,30885.239000000016,4-9-5-3
39,4,10,3,1,256,0.6282748393475037,-0.3925120540961591,2.8208955223880596,53961.895599999996,4-10-3-1
40,4,10,3,2,158,0.5874938210578349,-0.24895703675334066,2.8536585365853657,53304.15030000004,4-10-3-2
41,4,10,3,3,47,0.40756302521008403,-0.2736557972724271,1.6111111111111112,14576.625000000005,4-10-3-3
42,4,10,4,1,236,0.6230845279288186,-0.3245507786028662,2.806451612903226,45510.83900000002,4-10-4-1
43,4,10,4,2,161,0.5825506673257538,-0.243507314662455,3.128205128205128,49771.29999999999,4-10-4-2
44,4,10,4,3,64,0.536826495304004,-0.1889113213105515,4.333333333333333,50687.527,4-10-4-3
45,4,10,5,1,211,0.6164112703905091,-0.337335472496887,2.9074074074074074,45649.228000000025,4-10-5-1
46,4,10,5,2,152,0.59268413247652,-0.23608583859393145,2.8974358974358974,37813.26559999999,4-10-5-2
47,4,10,5,3,63,0.5385565991102323,-0.3737841734557422,3.5,41564.921,4-10-5-3
48,4,12,3,1,222,0.6240731586752348,-0.3498857459384114,3.269230769230769,50742.116199999946,4-12-3-1
49,4,12,3,2,147,0.5800790904597133,-0.2494909897210243,2.8684210526315788,54936.7782,4-12-3-2
50,4,12,3,3,50,0.40286702916460704,-0.3068289218208609,1.5,15516.279999999992,4-12-3-3
51,4,12,4,1,199,0.6300049431537321,-0.35202787834877186,2.98,38018.022499999985,4-12-4-1
52,4,12,4,2,144,0.6099851705388037,-0.25459319005750836,2.6,44159.21220000001,4-12-4-2
53,4,12,4,3,58,0.5590706870983687,-0.33409244239216795,3.4615384615384617,43010.955,4-12-4-3
54,4,12,5,1,185,0.6225902125556105,-0.3053527984669492,2.7755102040816326,49194.46290000001,4-12-5-1
55,4,12,5,2,138,0.6055363321799307,-0.23766109328567264,2.8333333333333335,32263.326400000045,4-12-5-2
56,4,12,5,3,63,0.45674740484429066,-0.3021437928143378,2.7058823529411766,26440.49000000001,4-12-5-3
57,4,14,3,1,202,0.6290163124073158,-0.3771602849790618,3.04,44339.43359999996,4-14-3-1
58,4,14,3,2,135,0.5608007909045971,-0.2628036440519063,2.75,53109.97299999998,4-14-3-2
59,4,14,3,3,47,0.4871478002965892,-0.3168692178147805,1.9375,25183.240000000013,4-14-3-3
60,4,14,4,1,185,0.625308947108255,-0.3723817190645722,3.2045454545454546,46772.03350000003,4-14-4-1
61,4,14,4,2,134,0.583044982698962,-0.2437255751906101,2.9411764705882355,41095.42940000004,4-14-4-2
62,4,14,4,3,58,0.45897182402372716,-0.3483081894839882,3.8333333333333335,32589.085600000002,4-14-4-3
63,4,14,5,1,170,0.6154226396440929,-0.35405983808518143,2.953488372093023,47021.54150000001,4-14-5-1
64,4,14,5,2,134,0.5743944636678201,-0.23983655913978497,3.1875,39988.46540000005,4-14-5-2
65,4,14,5,3,62,0.44092931290163123,-0.13790707168551694,4.636363636363637,49087.416000000034,4-14-5-3
66,4,16,3,1,191,0.6245674740484429,-0.37715118140104426,3.2444444444444445,50632.498399999946,4-16-3-1
67,4,16,3,2,130,0.555857637172516,-0.34662001837465695,2.7142857142857144,44087.65839999997,4-16-3-2
68,4,16,3,3,45,0.45897182402372716,-0.31656917719389127,2.0,26324.475000000017,4-16-3-3
69,4,16,4,1,169,0.6149283242708848,-0.3797473108969789,3.4473684210526314,49526.75590000003,4-16-4-1
70,4,16,4,2,125,0.5583292140385566,-0.24289119361488273,3.310344827586207,41237.08259999998,4-16-4-2
71,4,16,4,3,50,0.3875432525951557,-0.2882816758888775,6.142857142857143,36256.570000000014,4-16-4-3
72,4,16,5,1,160,0.6127039050914483,-0.35439829305784504,3.4444444444444446,58666.89119999997,4-16-5-1
73,4,16,5,2,129,0.5612951062778052,-0.2620975240167757,3.4482758620689653,41773.823400000045,4-16-5-2
74,4,16,5,3,56,0.45773603559070686,-0.20881444671407964,4.090909090909091,40277.195000000036,4-16-5-3
75,4,18,3,1,167,0.6161641127039051,-0.39626543927446967,3.282051282051282,40299.98939999994,4-18-3-1
76,4,18,3,2,122,0.5402867029164607,-0.4010470292787987,2.588235294117647,32362.37290000002,4-18-3-2
77,4,18,3,3,42,0.41917943648047457,-0.34904416477115946,2.5,21775.124600000014,4-18-3-3
78,4,18,4,1,159,0.6097380128521998,-0.38488237586563084,3.8181818181818183,49500.779599999994,4-18-4-1
79,4,18,4,2,125,0.541769649036085,-0.2625247138450093,3.032258064516129,38082.181800000035,4-18-4-2
80,4,18,4,3,50,0.3601087493821058,-0.28843798329724724,5.25,29761.49999999999,4-18-4-3
81,4,18,5,1,151,0.6092436974789915,-0.3263984691965256,4.033333333333333,62509.12000000005,4-18-5-1
82,4,18,5,2,126,0.5595650024715768,-0.2840593027681989,3.3448275862068964,46181.81720000003,4-18-5-2
83,4,18,5,3,57,0.4379634206623826,-0.24480189094988172,3.3846153846153846,32165.950000000008,4-18-5-3
84,4,20,3,1,164,0.606524962926347,-0.40104737786257916,3.3157894736842106,45259.04939999996,4-20-3-1
85,4,20,3,2,121,0.5442412259021255,-0.4012755869312093,2.78125,34242.492400000025,4-20-3-2
86,4,20,3,3,42,0.38457736035590706,-0.35145176355877655,2.230769230769231,18194.992600000012,4-20-3-3
87,4,20,4,1,156,0.5996045477014336,-0.3719070528133833,4.2,53264.80999999997,4-20-4-1
88,4,20,4,2,123,0.5350963914977755,-0.26248895726334937,3.1,37036.962000000014,4-20-4-2
89,4,20,4,3,45,0.36875926841324763,-0.2884312062788213,4.0,23771.324999999993,4-20-4-3
90,4,20,5,1,149,0.6072664359861591,-0.3262205852859021,3.966666666666667,58277.78000000001,4-20-5-1
91,4,20,5,2,119,0.5494315373208106,-0.2838232561544177,3.576923076923077,38704.389200000005,4-20-5-2
92,4,20,5,3,59,0.41695501730103807,-0.2007290214077484,2.933333333333333,32934.570000000014,4-20-5-3
93,4,22,3,1,159,0.6087493821057834,-0.4047328129431645,3.8181818181818183,44769.740399999966,4-22-3-1
94,4,22,3,2,117,0.5501730103806228,-0.40140336613650857,3.0344827586206895,31725.961199999987,4-22-3-2
95,4,22,3,3,44,0.38902619871478,-0.35146398853258554,2.3846153846153846,21062.681600000004,4-22-3-3
96,4,22,4,1,149,0.6033119130004944,-0.372076018225149,3.966666666666667,45076.149999999994,4-22-4-1
97,4,22,4,2,115,0.5385565991102323,-0.2624354362707347,3.259259259259259,31539.71479999999,4-22-4-2
98,4,22,4,3,52,0.3788927335640138,-0.2882654259294201,4.777777777777778,27638.77000000001,4-22-4-3
99,4,22,5,1,141,0.6070192782995552,-0.3271206381630832,3.8620689655172415,51869.65200000004,4-22-5-1
100,4,22,5,2,115,0.5479485912011863,-0.28378291985704834,3.107142857142857,34283.54760000001,4-22-5-2
101,4,22,5,3,58,0.4112703905091448,-0.20088885028518483,3.142857142857143,28659.100000000035,4-22-5-3
102,4,24,3,1,157,0.6122095897182402,-0.3806654297737138,4.064516129032258,56381.387599999965,4-24-3-1
103,4,24,3,2,113,0.5642609985170539,-0.4223763767651601,2.6451612903225805,38399.93120000001,4-24-3-2
104,4,24,3,3,42,0.40237271379139894,-0.34777886090698257,2.0,19669.01759999999,4-24-3-3
0,4,24,4,1,144,0.6134453781512605,-0.3678794707096191,3.3636363636363638,49471.209600000024,4-24-4-1
1,4,24,4,2,113,0.5605536332179931,-0.2884203825313885,3.185185185185185,34005.438400000014,4-24-4-2
2,4,24,4,3,54,0.41917943648047457,-0.3480879214259556,3.909090909090909,24437.15,4-24-4-3
3,4,24,5,1,135,0.6087493821057834,-0.3271864878809921,3.5,52361.97980000003,4-24-5-1
4,4,24,5,2,108,0.5519031141868512,-0.28403118326453136,3.1538461538461537,32172.33399999999,4-24-5-2
5,4,24,5,3,54,0.4369747899159664,-0.2844000255172562,3.1538461538461537,24960.200000000026,4-24-5-3
6,5,6,3,1,315,0.6366782006920415,-0.3486453380600549,2.351063829787234,51006.445200000024,5-6-3-1
7,5,6,3,2,134,0.6529906080079091,-0.3561474287043885,2.116279069767442,44630.63090000001,5-6-3-2
8,5,6,3,3,30,0.5472071181413742,-0.2613584926909314,4.0,38118.53500000001,5-6-3-3
9,5,6,4,1,280,0.6201186356895699,-0.37877657697187084,2.45679012345679,58554.57069999996,5-6-4-1
10,5,6,4,2,160,0.6391497775580821,-0.36833144629766373,2.1372549019607843,49272.03999999999,5-6-4-2
11,5,6,4,3,38,0.5662382600098863,-0.30845215866529224,2.4545454545454546,23694.35,5-6-4-3
12,5,6,5,1,270,0.6314878892733564,-0.37946926211427745,2.3333333333333335,51226.04480000005,5-6-5-1
13,5,6,5,2,171,0.6381611468116658,-0.345393893440729,2.5625,32166.643699999953,5-6-5-2
14,5,6,5,3,46,0.6468116658428077,-0.2637709183349695,2.2857142857142856,40561.00500000001,5-6-5-3
15,5,7,3,1,295,0.6312407315867523,-0.3584537062141129,2.3146067415730336,62638.9943,5-7-3-1
16,5,7,3,2,163,0.6085022244191794,-0.36908087802187795,2.5434782608695654,38830.65219999999,5-7-3-2
17,5,7,3,3,51,0.5790904597132971,-0.37278180127558697,2.4,23173.959999999992,5-7-3-3
18,5,7,4,1,278,0.6351952545724172,-0.37644813353245055,2.3493975903614457,45113.34549999998,5-7-4-1
19,5,7,4,2,181,0.6277805239742956,-0.33909992739617845,2.549019607843137,41610.2872,5-7-4-2
20,5,7,4,3,49,0.6087493821057834,-0.33795361433023713,3.4545454545454546,37424.74340000001,5-7-4-3
21,5,7,5,1,264,0.6361838853188334,-0.4042717010132005,2.3846153846153846,50708.26940000002,5-7-5-1
22,5,7,5,2,188,0.6198714780029659,-0.4202601894749814,2.2413793103448274,35200.950200000036,5-7-5-2
23,5,7,5,3,53,0.5148294611962432,-0.3551058328980388,4.3,31203.555000000008,5-7-5-3
24,5,8,3,1,273,0.6339594661393969,-0.350422866184107,2.3703703703703702,72361.3432,5-8-3-1
25,5,8,3,2,176,0.5958971824023727,-0.42931198409541177,2.3207547169811322,28174.925800000008,5-8-3-2
26,5,8,3,3,55,0.6156697973306969,-0.2957533240617742,2.0555555555555554,26043.21,5-8-3-3
27,5,8,4,1,267,0.6307464162135442,-0.37226020046912606,2.3375,63066.040300000044,5-8-4-1
28,5,8,4,2,195,0.6008403361344538,-0.4425249180023875,2.4210526315789473,41035.86700000005,5-8-4-2
29,5,8,4,3,66,0.5850222441917944,-0.3256133793204999,3.7142857142857144,63400.56959999997,5-8-4-3
30,5,8,5,1,239,0.6384083044982699,-0.3980221959227748,2.514705882352941,50016.58489999998,5-8-5-1
31,5,8,5,2,194,0.6099851705388037,-0.2297468640434234,2.660377358490566,54025.14400000003,5-8-5-2
32,5,8,5,3,63,0.5803262481463174,-0.4158686819767593,3.8461538461538463,47669.5508,5-8-5-3
33,5,9,3,1,261,0.6230845279288186,-0.30659313032967245,2.3037974683544302,68822.06379999996,5-9-3-1
34,5,9,3,2,179,0.6043005437469106,-0.39300755392322445,2.5098039215686274,41960.322800000016,5-9-3-2
35,5,9,3,3,63,0.49159663865546216,-0.2691120508716313,5.3,67787.43000000002,5-9-3-3
36,5,9,4,1,249,0.625308947108255,-0.39714311817077114,2.276315789473684,48408.32559999999,5-9-4-1
37,5,9,4,2,191,0.5929312901631241,-0.3829549209448179,2.6037735849056602,49719.13660000002,5-9-4-2
38,5,9,4,3,74,0.5427582797825012,-0.33138013379042697,4.285714285714286,45564.04079999999,5-9-4-3
39,5,9,5,1,228,0.6317350469599604,-0.35421710646096777,2.5076923076923077,50928.95940000004,5-9-5-1
40,5,9,5,2,187,0.5894710825506674,-0.2832778033176558,2.978723404255319,51864.731600000036,5-9-5-2
41,5,9,5,3,80,0.573900148294612,-0.37873219887124476,3.0,36477.43980000003,5-9-5-3
42,5,10,3,1,244,0.6287691547207118,-0.3654737254764515,2.588235294117647,59725.42470000003,5-10-3-1
43,5,10,3,2,169,0.5659911023232822,-0.4099004025293468,2.5208333333333335,41749.38100000003,5-10-3-2
44,5,10,3,3,62,0.5474542758279782,-0.29758542564378143,5.2,50491.98500000003,5-10-3-3
45,5,10,4,1,228,0.6347009391992091,-0.3776246272147831,2.6774193548387095,55651.28400000001,5-10-4-1
46,5,10,4,2,179,0.5956500247157687,-0.36848110342299056,2.8085106382978724,47878.20700000003,5-10-4-2
47,5,10,4,3,82,0.5546218487394958,-0.40048467891893824,3.3157894736842106,43938.926400000055,5-10-4-3
48,5,10,5,1,211,0.6275333662876915,-0.3626929460057081,2.296875,40162.51190000001,5-10-5-1
49,5,10,5,2,181,0.6038062283737025,-0.35237923156244644,2.549019607843137,33446.089600000014,5-10-5-2
50,5,10,5,3,81,0.5207612456747405,-0.2556525642600519,4.4,39554.6542,5-10-5-3
51,5,12,3,1,207,0.6228373702422145,-0.32508225259211715,3.0588235294117645,53193.08200000004,5-12-3-1
52,5,12,3,2,152,0.6156697973306969,-0.3275765788162047,2.707317073170732,32842.88810000004,5-12-3-2
53,5,12,3,3,69,0.5882352941176471,-0.3590431331200643,2.8333333333333335,37890.281000000025,5-12-3-3
54,5,12,4,1,194,0.6421156697973307,-0.3574541959216526,2.660377358490566,41458.781500000005,5-12-4-1
55,5,12,4,2,160,0.601581809194266,-0.34627444587131195,3.210526315789474,32354.122800000045,5-12-4-2
56,5,12,4,3,74,0.5434997528423134,-0.3645624154837481,2.7,25506.382199999985,5-12-4-3
57,5,12,5,1,185,0.6332179930795848,-0.29406079931835544,2.627450980392157,52434.04980000003,5-12-5-1
58,5,12,5,2,160,0.6050420168067226,-0.3275869221271356,3.4444444444444446,36780.97280000002,5-12-5-2
59,5,12,5,3,79,0.5155709342560554,-0.31848266304633643,3.9375,37632.07880000001,5-12-5-3
60,5,14,3,1,190,0.620365793376174,-0.32530030150347566,3.2222222222222223,63540.60389999997,5-14-3-1
61,5,14,3,2,134,0.5719228868017795,-0.23502718685008386,3.0606060606060606,48906.36120000003,5-14-3-2
62,5,14,3,3,67,0.5076618882847257,-0.21499107296828426,3.7857142857142856,38865.781599999995,5-14-3-3
63,5,14,4,1,176,0.6262975778546713,-0.36141598926439533,3.0,50577.688200000004,5-14-4-1
64,5,14,4,2,150,0.5993573900148295,-0.3336393659945158,3.2857142857142856,36081.96699999999,5-14-4-2
65,5,14,4,3,73,0.4799802273850717,-0.3700423239222371,3.5625,29852.618800000022,5-14-4-3
66,5,14,5,1,164,0.6134453781512605,-0.2950711842699308,3.3157894736842106,63090.38060000007,5-14-5-1
67,5,14,5,2,143,0.5746416213544241,-0.3170768869331542,3.46875,47889.152200000084,5-14-5-2
68,5,14,5,3,72,0.4876421156697973,-0.3150032392058229,2.6,33417.340000000004,5-14-5-3
69,5,16,3,1,175,0.6124567474048442,-0.3789105593507545,3.1666666666666665,52961.077800000014,5-16-3-1
70,5,16,3,2,135,0.5481957488877904,-0.27149968992120876,3.3548387096774195,55536.41800000006,5-16-3-2
71,5,16,3,3,60,0.41744933267424617,-0.1974931548612196,4.454545454545454,39229.52119999998,5-16-3-3
72,5,16,4,1,162,0.6156697973306969,-0.37209622597504866,3.1538461538461537,53579.64829999995,5-16-4-1
73,5,16,4,2,144,0.5810677212061295,-0.33507209262806004,3.3636363636363638,43669.37000000003,5-16-4-2
74,5,16,4,3,68,0.4451309935739001,-0.33851586383001564,4.230769230769231,35477.649400000024,5-16-4-3
75,5,16,5,1,156,0.6127039050914483,-0.32034731752633905,3.3333333333333335,58311.82600000006,5-16-5-1
76,5,16,5,2,138,0.5699456253089471,-0.36377978400722955,3.3125,46868.84420000004,5-16-5-2
77,5,16,5,3,79,0.47108255066732574,-0.28315923817603383,2.95,37890.06059999999,5-16-5-3
78,5,18,3,1,161,0.6122095897182402,-0.3789765028260722,3.4722222222222223,53471.00519999999,5-18-3-1
79,5,18,3,2,128,0.5548690064260998,-0.22214420833771725,3.413793103448276,57278.49580000003,5-18-3-2
80,5,18,3,3,54,0.39273356401384085,-0.19782735128863485,5.0,34179.729999999996,5-18-3-3
81,5,18,4,1,154,0.6218487394957983,-0.403523992868778,3.5294117647058822,59394.80020000005,5-18-4-1
82,5,18,4,2,134,0.5815620365793376,-0.38831531139036596,3.3225806451612905,45083.60060000001,5-18-4-2
83,5,18,4,3,61,0.44809688581314877,-0.28872023089097826,3.357142857142857,35201.02280000004,5-18-4-3
84,5,18,5,1,149,0.6047948591201187,-0.3277236963889666,3.515151515151515,59599.554400000045,5-18-5-1
85,5,18,5,2,126,0.5568462679189323,-0.3739210980030942,3.5,45154.38920000002,5-18-5-2
86,5,18,5,3,75,0.4565002471576866,-0.2463208143736133,3.1666666666666665,41400.893800000005,5-18-5-3
87,5,20,3,1,158,0.6089965397923875,-0.3794136616419526,4.096774193548387,62919.972600000016,5-20-3-1
88,5,20,3,2,121,0.5346020761245674,-0.22222494837350984,3.84,54858.66980000003,5-20-3-2
89,5,20,3,3,55,0.43450321304992584,-0.2720245012898776,4.5,26377.310000000012,5-20-3-3
90,5,20,4,1,152,0.6161641127039051,-0.4047727739803069,3.903225806451613,53359.22100000004,5-20-4-1
91,5,20,4,2,129,0.5684626791893228,-0.40092864585219057,3.161290322580645,38153.89960000002,5-20-4-2
92,5,20,4,3,64,0.4471082550667326,-0.31585531839139785,3.5714285714285716,38138.18480000003,5-20-4-3
93,5,20,5,1,146,0.6072664359861591,-0.31974574157387864,3.5625,57068.65819999999,5-20-5-1
94,5,20,5,2,124,0.5474542758279782,-0.2870406103168706,3.2758620689655173,46079.31240000006,5-20-5-2
95,5,20,5,3,76,0.45625308947108256,-0.21365035955931855,3.75,46441.53019999999,5-20-5-3
96,5,22,3,1,155,0.6087493821057834,-0.3658542146776813,4.535714285714286,59875.287800000035,5-22-3-1
97,5,22,3,2,125,0.551161641127039,-0.22215072528877602,3.4642857142857144,50489.84179999999,5-22-3-2
98,5,22,3,3,61,0.4411764705882353,-0.2444150044569988,3.6923076923076925,33113.41000000001,5-22-3-3
99,5,22,4,1,145,0.6134453781512605,-0.4052621871421308,3.8333333333333335,49653.46720000001,5-22-4-1
100,5,22,4,2,124,0.5652496292634701,-0.40057796087283154,3.1333333333333333,34289.48200000001,5-22-4-2
101,5,22,4,3,65,0.44142362827483933,-0.31844254643953435,3.3333333333333335,37010.761800000015,5-22-4-3
102,5,22,5,1,138,0.611220958971824,-0.3337509145431058,3.1818181818181817,45790.708,5-22-5-1
103,5,22,5,2,120,0.5620365793376174,-0.2804520650165295,3.2857142857142856,43460.42460000004,5-22-5-2
104,5,22,5,3,68,0.42609985170538806,-0.25091914017587225,3.25,30922.04300000003,5-22-5-3
0,5,24,3,1,143,0.6146811665842807,-0.3657234304047043,4.107142857142857,57670.77239999999,5-24-3-1
1,5,24,3,2,118,0.5457241720217498,-0.22267890284893205,3.3703703703703702,46479.972599999994,5-24-3-2
2,5,24,3,3,56,0.42708848245180425,-0.18282098400795013,5.222222222222222,41492.06,5-24-3-3
3,5,24,4,1,136,0.6119624320316361,-0.40856849452790595,3.3870967741935485,45055.349200000004,5-24-4-1
4,5,24,4,2,118,0.5575877409787444,-0.3815895215378963,2.806451612903226,32672.248200000024,5-24-4-2
5,5,24,4,3,60,0.42659416707859615,-0.311806356283001,3.0,31653.065400000036,5-24-4-3
6,5,24,5,1,131,0.6099851705388037,-0.3107190995551029,3.5172413793103448,52393.25980000003,5-24-5-1
7,5,24,5,2,116,0.5706870983687593,-0.27079041957360406,3.2962962962962963,53973.33580000006,5-24-5-2
8,5,24,5,3,62,0.47157686604053384,-0.3078126115014427,2.6470588235294117,24454.825200000003,5-24-5-3
9,6,6,3,1,0,0.0,0.0,0.0,10000.0,6-6-3-1
10,6,6,3,2,0,0.0,0.0,0.0,10000.0,6-6-3-2
11,6,6,3,3,0,0.0,0.0,0.0,10000.0,6-6-3-3
12,6,6,4,1,0,0.0,0.0,0.0,10000.0,6-6-4-1
13,6,6,4,2,0,0.0,0.0,0.0,10000.0,6-6-4-2
14,6,6,4,3,0,0.0,0.0,0.0,10000.0,6-6-4-3
15,6,6,5,1,0,0.0,0.0,0.0,10000.0,6-6-5-1
16,6,6,5,2,0,0.0,0.0,0.0,10000.0,6-6-5-2
17,6,6,5,3,0,0.0,0.0,0.0,10000.0,6-6-5-3
18,6,7,3,1,275,0.6386554621848739,-0.3090667747701536,2.2738095238095237,78314.80350000001,6-7-3-1
19,6,7,3,2,140,0.6198714780029659,-0.3082917721551097,2.58974358974359,34370.03300000001,6-7-3-2
20,6,7,3,3,35,0.5570934256055363,-0.2506789733194856,2.1818181818181817,40183.15499999996,6-7-3-3
21,6,7,4,1,259,0.6428571428571429,-0.2961471229137232,2.1204819277108435,62364.9578,6-7-4-1
22,6,7,4,2,155,0.6292634700939199,-0.4138316539457234,2.6904761904761907,43098.71300000004,6-7-4-2
23,6,7,4,3,50,0.6322293623331685,-0.2827713345918062,2.125,34286.93000000002,6-7-4-3
24,6,7,5,1,244,0.6332179930795848,-0.2634258247378517,2.4857142857142858,61442.9052,6-7-5-1
25,6,7,5,2,173,0.6450815620365793,-0.2683265701885692,3.2195121951219514,72161.14100000003,6-7-5-2
26,6,7,5,3,54,0.7530894710825506,-0.3131309256435108,3.5,48251.33000000002,6-7-5-3
27,6,8,3,1,267,0.652496292634701,-0.29120576008596166,2.0689655172413794,60805.35869999998,6-8-3-1
28,6,8,3,2,156,0.6334651507661888,-0.41645281985195726,3.0,53573.394,6-8-3-2
29,6,8,3,3,58,0.5991102323282254,-0.28355201430538945,2.625,35718.92499999999,6-8-3-3
30,6,8,4,1,254,0.6356895699456253,-0.2885599944112333,2.4794520547945207,62918.324300000044,6-8-4-1
31,6,8,4,2,177,0.6196243203163618,-0.270082798309315,2.6122448979591835,58314.553000000065,6-8-4-2
32,6,8,4,3,59,0.6651013346515077,-0.31358402608289704,3.2142857142857144,50883.19619999997,6-8-4-3
33,6,8,5,1,236,0.6327236777063767,-0.33077624264008343,2.4705882352941178,56151.908600000024,6-8-5-1
34,6,8,5,2,183,0.6109738012852199,-0.21969778165662496,2.452830188679245,56279.652799999996,6-8-5-2
35,6,8,5,3,71,0.6287691547207118,-0.24432091599901876,2.9444444444444446,43806.88500000004,6-8-5-3
36,6,9,3,1,248,0.648294611962432,-0.33860285099076043,2.3513513513513513,60262.814600000034,6-9-3-1
37,6,9,3,2,174,0.6161641127039051,-0.23178114702058827,3.2439024390243905,54388.440000000024,6-9-3-2
38,6,9,3,3,64,0.6075135936727633,-0.2232901265033638,2.764705882352941,38284.150399999984,6-9-3-3
39,6,9,4,1,236,0.6428571428571429,-0.39311731828417934,2.4705882352941178,50825.36200000004,6-9-4-1
40,6,9,4,2,189,0.629757785467128,-0.304382847492023,2.5660377358490565,44095.21550000008,6-9-4-2
41,6,9,4,3,73,0.6119624320316361,-0.2711723119494598,3.8666666666666667,47418.368600000016,6-9-4-3
42,6,9,5,1,218,0.6431043005437469,-0.3600420208194059,2.253731343283582,43758.901500000014,6-9-5-1
43,6,9,5,2,189,0.6403855659911023,-0.33893199995600803,2.5660377358490565,39103.85960000003,6-9-5-2
44,6,9,5,3,80,0.6475531389026199,-0.29034037352828357,4.0,62309.480000000025,6-9-5-3
45,6,10,3,1,231,0.6426099851705388,-0.380663356878083,2.347826086956522,39832.54179999999,6-10-3-1
46,6,10,3,2,171,0.6092436974789915,-0.262548682161424,3.1707317073170733,47372.90000000004,6-10-3-2
47,6,10,3,3,75,0.5726643598615917,-0.3089639865119183,2.75,42217.62120000001,6-10-3-3
48,6,10,4,1,222,0.6416213544241226,-0.34711818260045335,2.3636363636363638,44178.00680000001,6-10-4-1
49,6,10,4,2,178,0.6181413741967375,-0.40460451294819116,2.63265306122449,36232.68810000005,6-10-4-2
50,6,10,4,3,75,0.6136925358378645,-0.29732444014099996,4.357142857142857,49875.28599999999,6-10-4-3
51,6,10,5,1,202,0.6332179930795848,-0.3281594888417132,2.3666666666666667,37108.226200000005,6-10-5-1
52,6,10,5,2,179,0.6144340088976767,-0.3368054414760103,3.0681818181818183,47832.17710000004,6-10-5-2
53,6,10,5,3,81,0.5790904597132971,-0.23752830608994213,2.6818181818181817,29493.28899999999,6-10-5-3
54,6,12,3,1,192,0.6384083044982699,-0.3138397400286126,2.6923076923076925,53223.210199999936,6-12-3-1
55,6,12,3,2,153,0.6243203163618388,-0.2732036855166798,3.6363636363636362,67054.2592,6-12-3-2
56,6,12,3,3,79,0.606030647553139,-0.24034110282920337,2.761904761904762,35618.66500000001,6-12-3-3
57,6,12,4,1,189,0.6379139891250618,-0.30880232928813955,2.6346153846153846,45021.741400000006,6-12-4-1
58,6,12,4,2,160,0.6319822046465645,-0.32497711679084107,3.0,44724.46530000001,6-12-4-2
59,6,12,4,3,88,0.5333662876915473,-0.28984209092096463,2.8260869565217392,29728.3784,6-12-4-3
60,6,12,5,1,180,0.625308947108255,-0.3105460605853982,2.9130434782608696,48652.16199999999,6-12-5-1
61,6,12,5,2,156,0.6220958971824023,-0.2755909103922778,3.2162162162162162,52882.409100000084,6-12-5-2
62,6,12,5,3,95,0.5385565991102323,-0.2508858085126325,2.9583333333333335,33500.19419999999,6-12-5-3
63,6,14,3,1,175,0.6235788433020267,-0.279137253887016,2.5714285714285716,54333.80779999996,6-14-3-1
64,6,14,3,2,136,0.5986159169550173,-0.2605632000486963,3.533333333333333,55940.94319999999,6-14-3-2
65,6,14,3,3,72,0.5442412259021255,-0.19400500020037803,4.142857142857143,37240.20000000002,6-14-3-3
66,6,14,4,1,172,0.6275333662876915,-0.3004347572928593,2.909090909090909,57312.624,6-14-4-1
67,6,14,4,2,148,0.6267918932278794,-0.24557720666237645,3.3529411764705883,63340.871600000086,6-14-4-2
68,6,14,4,3,82,0.513840830449827,-0.28013050035243386,3.3157894736842106,33231.73080000001,6-14-4-3
69,6,14,5,1,164,0.6164112703905091,-0.2625748384704182,3.2051282051282053,58386.3106,6-14-5-1
70,6,14,5,2,150,0.611220958971824,-0.2619297207951754,3.2857142857142856,59800.71630000005,6-14-5-2
71,6,14,5,3,99,0.5439940682155215,-0.23103234093381614,3.125,42284.645000000004,6-14-5-3
72,6,16,3,1,164,0.6218487394957983,-0.28423445503094497,3.0,69683.19699999993,6-16-3-1
73,6,16,3,2,126,0.5850222441917944,-0.24098610198791118,3.2,59304.68540000007,6-16-3-2
74,6,16,3,3,66,0.4639149777558082,-0.20160728238453723,5.6,38560.59,6-16-3-3
75,6,16,4,1,158,0.6089965397923875,-0.34513681481873243,3.1578947368421053,65558.78899999993,6-16-4-1
76,6,16,4,2,143,0.5909540286702917,-0.37018195116229297,3.085714285714286,55559.19460000006,6-16-4-2
77,6,16,4,3,85,0.5002471576866041,-0.29902244241997034,3.25,46403.07999999999,6-16-4-3
78,6,16,5,1,149,0.6129510627780524,-0.2713343511870372,3.257142857142857,67033.09410000002,6-16-5-1
79,6,16,5,2,139,0.6045477014335146,-0.25332433403749893,3.6333333333333333,68093.01440000001,6-16-5-2
80,6,16,5,3,99,0.541275333662877,-0.2194811566465971,3.3043478260869565,49276.20499999999,6-16-5-3
81,6,18,3,1,155,0.6280276816608996,-0.3521207328556756,3.3055555555555554,63259.65060000002,6-18-3-1
82,6,18,3,2,125,0.5874938210578349,-0.26774262081287187,3.1666666666666665,68772.74880000004,6-18-3-2
83,6,18,3,3,70,0.4871478002965892,-0.2693524024409162,2.888888888888889,36237.67720000005,6-18-3-3
84,6,18,4,1,150,0.611468116658428,-0.3659262764839872,3.411764705882353,58103.27999999999,6-18-4-1
85,6,18,4,2,131,0.5719228868017795,-0.3135621615825874,3.225806451612903,62085.320000000116,6-18-4-2
86,6,18,4,3,75,0.5180425111220959,-0.2726085916139382,2.75,39392.950000000004,6-18-4-3
87,6,18,5,1,145,0.6151754819574888,-0.2713869434422446,3.393939393939394,60950.11799999995,6-18-5-1
88,6,18,5,2,130,0.5892239248640633,-0.2534654844987041,3.4827586206896552,51831.577400000075,6-18-5-2
89,6,18,5,3,92,0.532871972318339,-0.25387167927633214,3.380952380952381,36871.935000000034,6-18-5-3
90,6,20,3,1,151,0.620612951062778,-0.3550305602217575,3.4411764705882355,60990.16999999998,6-20-3-1
91,6,20,3,2,123,0.5706870983687593,-0.27311557002849646,3.2413793103448274,62025.81880000003,6-20-3-2
92,6,20,3,3,77,0.5133465150766189,-0.2293647460559825,3.8125,48918.42840000003,6-20-3-3
93,6,20,4,1,143,0.6220958971824023,-0.3717199191147142,3.6129032258064515,56915.87820000005,6-20-4-1
94,6,20,4,2,128,0.5902125556104795,-0.33414861754784186,3.5714285714285716,55631.83590000006,6-20-4-2
95,6,20,4,3,81,0.5358378645575878,-0.3003561183791306,4.0625,39006.84180000002,6-20-4-3
96,6,20,5,1,140,0.6186356895699456,-0.281523211485813,3.6666666666666665,62521.10640000002,6-20-5-1
97,6,20,5,2,126,0.5939199209095403,-0.2531357030752698,4.04,58705.915100000064,6-20-5-2
98,6,20,5,3,96,0.5484429065743944,-0.2631522703927526,4.333333333333333,44914.82500000001,6-20-5-3
99,6,22,3,1,143,0.6196243203163618,-0.29945966207437696,3.9310344827586206,66415.95199999996,6-22-3-1
100,6,22,3,2,116,0.555610479485912,-0.22277037229680763,4.043478260869565,57357.78400000002,6-22-3-2
101,6,22,3,3,69,0.46094908551655955,-0.24739443035968958,3.3125,34080.61200000001,6-22-3-3
102,6,22,4,1,137,0.6260504201680672,-0.40075706402738487,3.4193548387096775,41851.93880000001,6-22-4-1
103,6,22,4,2,121,0.5827978250123579,-0.3338731596366815,3.3214285714285716,42448.453800000025,6-22-4-2
104,6,22,4,3,84,0.5306475531389027,-0.367834610888198,3.9411764705882355,33249.89500000001,6-22-4-3
0,6,22,5,1,131,0.6287691547207118,-0.27186550155750433,3.6785714285714284,57848.954999999965,6-22-5-1
1,6,22,5,2,117,0.5916955017301038,-0.25313395930232163,3.875,50151.02500000005,6-22-5-2
2,6,22,5,3,90,0.5516559565002471,-0.31627812803880534,4.294117647058823,35455.015,6-22-5-3
3,6,24,3,1,134,0.6282748393475037,-0.27870698809615163,3.466666666666667,64728.04359999998,6-24-3-1
4,6,24,3,2,108,0.5583292140385566,-0.2286926360037649,3.5,47017.4708,6-24-3-2
5,6,24,3,3,64,0.4315373208106772,-0.2350506409229162,4.818181818181818,37295.048600000024,6-24-3-3
6,6,24,4,1,131,0.6290163124073158,-0.36217973645792806,3.6785714285714284,46748.743000000024,6-24-4-1
7,6,24,4,2,111,0.5850222441917944,-0.3206194758797644,3.625,49042.563500000026,6-24-4-2
8,6,24,4,3,76,0.5160652496292635,-0.3334893790908242,4.846153846153846,41720.41,6-24-4-3
9,6,24,5,1,123,0.6233316856154226,-0.36903071243266117,3.392857142857143,44290.86,6-24-5-1
10,6,24,5,2,108,0.592436974789916,-0.30888787548106617,3.5,44513.40000000004,6-24-5-2
11,6,24,5,3,85,0.5252100840336135,-0.33189884920877677,3.7222222222222223,37961.655000000006,6-24-5-3
12,7,7,3,1,0,0.0,0.0,0.0,10000.0,7-7-3-1
13,7,7,3,2,0,0.0,0.0,0.0,10000.0,7-7-3-2
14,7,7,3,3,0,0.0,0.0,0.0,10000.0,7-7-3-3
15,7,7,4,1,0,0.0,0.0,0.0,10000.0,7-7-4-1
16,7,7,4,2,0,0.0,0.0,0.0,10000.0,7-7-4-2
17,7,7,4,3,0,0.0,0.0,0.0,10000.0,7-7-4-3
18,7,7,5,1,0,0.0,0.0,0.0,10000.0,7-7-5-1
19,7,7,5,2,0,0.0,0.0,0.0,10000.0,7-7-5-2
20,7,7,5,3,0,0.0,0.0,0.0,10000.0,7-7-5-3
21,7,8,3,1,252,0.6552150271873455,-0.37712662460636065,2.189873417721519,44955.02760000002,7-8-3-1
22,7,8,3,2,137,0.6594167078596145,-0.2323567637553248,2.6052631578947367,72911.34,7-8-3-2
23,7,8,3,3,39,0.7009391992090954,-0.3167429335721679,4.571428571428571,39532.424999999996,7-8-3-3
24,7,8,4,1,238,0.6569451309935739,-0.40263731829730504,2.6615384615384614,45870.249399999986,7-8-4-1
25,7,8,4,2,153,0.6693030153237766,-0.4269181523369193,2.06,35148.76090000005,7-8-4-2
26,7,8,4,3,51,0.6450815620365793,-0.359069281837527,2.642857142857143,41592.115000000005,7-8-4-3
27,7,8,5,1,225,0.6544735541275334,-0.3205051433424007,2.3582089552238807,43349.48060000002,7-8-5-1
28,7,8,5,2,169,0.6566979733069699,-0.330905097692536,2.188679245283019,41044.73700000006,7-8-5-2
29,7,8,5,3,61,0.6529906080079091,-0.34035273966492424,3.357142857142857,52139.19500000002,7-8-5-3
30,7,9,3,1,237,0.6539792387543253,-0.3896778641115391,2.3857142857142857,44795.69420000002,7-9-3-1
31,7,9,3,2,164,0.6599110232328226,-0.3603318786787988,2.3469387755102042,41651.105000000025,7-9-3-2
32,7,9,3,3,50,0.6181413741967375,-0.3630140063831662,3.1666666666666665,47533.465,7-9-3-3
33,7,9,4,1,232,0.6445872466633712,-0.36335940555338325,2.2222222222222223,41487.2322,7-9-4-1
34,7,9,4,2,176,0.6260504201680672,-0.36030290672708926,2.6666666666666665,43828.38180000002,7-9-4-2
35,7,9,4,3,61,0.6715274345032131,-0.30564361745935803,2.05,31213.640000000007,7-9-4-3
36,7,9,5,1,215,0.6376668314384577,-0.3440044929425044,2.1159420289855073,31131.844400000053,7-9-5-1
37,7,9,5,2,174,0.6230845279288186,-0.2594319102968654,2.5510204081632653,46770.97470000001,7-9-5-2
38,7,9,5,3,74,0.6374196737518537,-0.199306060838152,2.0833333333333335,36543.09500000002,7-9-5-3
39,7,10,3,1,225,0.6371725160652496,-0.36111958687441265,2.2142857142857144,47055.036999999975,7-10-3-1
40,7,10,3,2,176,0.6228373702422145,-0.23109567721281823,2.3846153846153846,37929.51850000005,7-10-3-2
41,7,10,3,3,70,0.5677212061295106,-0.31836712236574904,3.6666666666666665,43842.6,7-10-3-3
42,7,10,4,1,209,0.6304992585269402,-0.3412962881918611,2.1194029850746268,32299.1614,7-10-4-1
43,7,10,4,2,175,0.6277805239742956,-0.26091704773996444,2.888888888888889,50350.42660000002,7-10-4-2
44,7,10,4,3,78,0.5617894216510133,-0.29737582472394986,2.5454545454545454,30621.84,7-10-4-3
45,7,10,5,1,194,0.625308947108255,-0.3383496655272516,2.4035087719298245,40275.23239999997,7-10-5-1
46,7,10,5,2,178,0.6235788433020267,-0.29212888287821426,2.7872340425531914,53462.840300000076,7-10-5-2
47,7,10,5,3,87,0.5823035096391498,-0.25960498080873207,3.142857142857143,40200.00900000003,7-10-5-3
48,7,12,3,1,192,0.6386554621848739,-0.28833250971144037,2.6923076923076925,46912.49320000002,7-12-3-1
49,7,12,3,2,158,0.6354424122590212,-0.2458097645265698,2.761904761904762,51887.97300000004,7-12-3-2
50,7,12,3,3,76,0.5163124073158675,-0.3494017261671248,2.4545454545454546,27072.24000000001,7-12-3-3
51,7,12,4,1,181,0.6277805239742956,-0.33248346810275686,2.851063829787234,44412.31520000004,7-12-4-1
52,7,12,4,2,159,0.6166584280771132,-0.41915267449485905,2.4565217391304346,33449.84980000002,7-12-4-2
53,7,12,4,3,84,0.5504201680672269,-0.22002290106639133,2.230769230769231,23975.622999999996,7-12-4-3
54,7,12,5,1,174,0.6327236777063767,-0.3478342841959472,2.702127659574468,45963.28890000003,7-12-5-1
55,7,12,5,2,157,0.6183885318833415,-0.38906877892630604,3.0256410256410255,42647.93200000003,7-12-5-2
56,7,12,5,3,95,0.5610479485912012,-0.2505074565037284,2.6538461538461537,29505.60639999999,7-12-5-3
57,7,14,3,1,171,0.6223430548690064,-0.309583252325396,3.0714285714285716,54965.80620000003,7-14-3-1
58,7,14,3,2,144,0.5884824518042511,-0.2700238267806069,2.891891891891892,61680.81450000004,7-14-3-2
59,7,14,3,3,75,0.5521502718734552,-0.2848599544559352,2.125,23021.484999999993,7-14-3-3
60,7,14,4,1,163,0.6198714780029659,-0.3257449727177978,3.1794871794871793,52917.667000000016,7-14-4-1
61,7,14,4,2,149,0.6038062283737025,-0.3860390036359198,2.9210526315789473,46757.253200000036,7-14-4-2
62,7,14,4,3,92,0.5477014335145823,-0.22852056084559627,2.5384615384615383,32835.990000000005,7-14-4-3
63,7,14,5,1,160,0.6161641127039051,-0.3315157073245756,2.8095238095238093,52216.712300000014,7-14-5-1
64,7,14,5,2,145,0.6089965397923875,-0.3101112279061549,2.717948717948718,58045.26940000001,7-14-5-2
65,7,14,5,3,98,0.5491843796342066,-0.2164718113719538,2.92,41160.549999999974,7-14-5-3
66,7,16,3,1,156,0.6201186356895699,-0.28792928157449144,3.588235294117647,69270.68439999998,7-16-3-1
67,7,16,3,2,135,0.5820563519525457,-0.2576549572840689,3.3548387096774195,78283.34250000007,7-16-3-2
68,7,16,3,3,76,0.4826989619377163,-0.19841141609862573,2.619047619047619,40236.13000000003,7-16-3-3
69,7,16,4,1,151,0.6198714780029659,-0.34710082000004633,3.1944444444444446,55345.1754,7-16-4-1
70,7,16,4,2,138,0.6176470588235294,-0.3416715113111612,3.7586206896551726,72106.23000000004,7-16-4-2
71,7,16,4,3,86,0.5207612456747405,-0.1884215786485881,3.0952380952380953,47703.479400000026,7-16-4-3
72,7,16,5,1,149,0.6216015818091942,-0.3347216625023504,3.806451612903226,68259.84150000001,7-16-5-1
73,7,16,5,2,138,0.6097380128521998,-0.3247008278245135,3.7586206896551726,68362.32000000002,7-16-5-2
74,7,16,5,3,97,0.532871972318339,-0.2663276202887881,3.0416666666666665,43564.19850000003,7-16-5-3
75,7,18,3,1,146,0.6233316856154226,-0.3546328886896087,3.7096774193548385,64230.95500000003,7-18-3-1
76,7,18,3,2,126,0.5820563519525457,-0.25760226633938965,3.5,60763.82350000001,7-18-3-2
77,7,18,3,3,68,0.472071181413742,-0.2128654558140721,3.0,30929.844999999987,7-18-3-3
78,7,18,4,1,142,0.6245674740484429,-0.33987194869425197,3.4375,57940.41999999996,7-18-4-1
79,7,18,4,2,125,0.5993573900148295,-0.345041877578387,3.310344827586207,52384.75000000006,7-18-4-2
80,7,18,4,3,86,0.5086505190311419,-0.26404637296936057,3.3,42141.58999999999,7-18-4-3
81,7,18,5,1,140,0.6176470588235294,-0.3313220386756461,3.5161290322580645,57481.49199999998,7-18-5-1
82,7,18,5,2,128,0.5986159169550173,-0.3336583323065836,3.5714285714285716,51539.90500000004,7-18-5-2
83,7,18,5,3,99,0.5541275333662877,-0.2633685335987052,2.6666666666666665,37007.1302,7-18-5-3
84,7,20,3,1,141,0.6228373702422145,-0.32540154448533176,4.035714285714286,67573.01499999997,7-20-3-1
85,7,20,3,2,120,0.5627780523974295,-0.25526446727651764,3.2857142857142856,46999.972000000045,7-20-3-2
86,7,20,3,3,70,0.4829461196243203,-0.19423717250797562,2.888888888888889,29726.72159999997,7-20-3-3
87,7,20,4,1,140,0.6220958971824023,-0.32983547972424676,3.8275862068965516,62565.29960000003,7-20-4-1
88,7,20,4,2,124,0.5956500247157687,-0.32815172766262735,3.4285714285714284,53422.82760000003,7-20-4-2
89,7,20,4,3,89,0.48690064260998517,-0.27972493516199576,3.9444444444444446,41520.49739999999,7-20-4-3
90,7,20,5,1,136,0.6220958971824023,-0.3826796940268884,3.533333333333333,59798.12050000001,7-20-5-1
91,7,20,5,2,124,0.6005931784478498,-0.2633933801782543,3.4285714285714284,52839.96000000004,7-20-5-2
92,7,20,5,3,93,0.555857637172516,-0.2170257509107454,3.227272727272727,44043.29840000004,7-20-5-3
93,7,22,3,1,135,0.6300049431537321,-0.3163419974909406,4.0,55312.81500000002,7-22-3-1
94,7,22,3,2,114,0.5622837370242214,-0.26034225778549835,3.75,40414.23350000001,7-22-3-2
95,7,22,3,3,70,0.46910528917449335,-0.21915017129443198,2.888888888888889,26739.660000000003,7-22-3-3
96,7,22,4,1,131,0.6349480968858131,-0.33372848170038233,3.6785714285714284,57041.996000000014,7-22-4-1
97,7,22,4,2,115,0.6028175976272863,-0.32649478036737634,3.7916666666666665,46095.3900000001,7-22-4-2
98,7,22,4,3,86,0.5121107266435986,-0.2793815326511873,3.526315789473684,32444.35260000001,7-22-4-3
99,7,22,5,1,126,0.625308947108255,-0.42652691016488214,3.5,50831.39649999997,7-22-5-1
100,7,22,5,2,114,0.6136925358378645,-0.3256604967568422,4.181818181818182,47194.335000000065,7-22-5-2
101,7,22,5,3,88,0.5860108749382106,-0.2583209342775877,3.6315789473684212,34173.620800000004,7-22-5-3
102,7,24,3,1,128,0.6334651507661888,-0.3259851940378658,3.923076923076923,58266.645,7-24-3-1
103,7,24,3,2,105,0.5561047948591201,-0.3116172969711156,3.772727272727273,40409.08700000006,7-24-3-2
104,7,24,3,3,66,0.5084033613445378,-0.3480392156862748,4.076923076923077,30644.26500000001,7-24-3-3
0,7,24,4,1,124,0.6282748393475037,-0.41968046796942615,3.5925925925925926,53541.25599999999,7-24-4-1
1,7,24,4,2,110,0.596885813148789,-0.37973752917360787,3.782608695652174,46659.5750000001,7-24-4-2
2,7,24,4,3,86,0.5175481957488878,-0.32966525157518234,4.0588235294117645,34029.61140000001,7-24-4-3
3,7,24,5,1,122,0.6272862086010875,-0.4268666094038305,3.357142857142857,51588.672999999995,7-24-5-1
4,7,24,5,2,112,0.6127039050914483,-0.3804404457645631,3.869565217391304,46919.415000000045,7-24-5-2
5,7,24,5,3,89,0.5748887790410282,-0.34814694310183714,3.45,33729.409599999984,7-24-5-3
6,8,8,3,1,0,0.0,0.0,0.0,10000.0,8-8-3-1
7,8,8,3,2,0,0.0,0.0,0.0,10000.0,8-8-3-2
8,8,8,3,3,0,0.0,0.0,0.0,10000.0,8-8-3-3
9,8,8,4,1,0,0.0,0.0,0.0,10000.0,8-8-4-1
10,8,8,4,2,0,0.0,0.0,0.0,10000.0,8-8-4-2
11,8,8,4,3,0,0.0,0.0,0.0,10000.0,8-8-4-3
12,8,8,5,1,0,0.0,0.0,0.0,10000.0,8-8-5-1
13,8,8,5,2,0,0.0,0.0,0.0,10000.0,8-8-5-2
14,8,8,5,3,0,0.0,0.0,0.0,10000.0,8-8-5-3
15,8,9,3,1,229,0.6529906080079091,-0.2419065033382025,1.7926829268292683,38151.5022,8-9-3-1
16,8,9,3,2,130,0.6381611468116658,-0.23437531317669372,2.823529411764706,67586.68820000003,8-9-3-2
17,8,9,3,3,47,0.6043005437469106,-0.2529796133820672,1.9375,29027.35,8-9-3-3
18,8,9,4,1,217,0.6495304003954523,-0.36208078878967215,1.855263157894737,35375.17590000003,8-9-4-1
19,8,9,4,2,155,0.6693030153237766,-0.35715591748624625,2.875,48217.25790000004,8-9-4-2
20,8,9,4,3,62,0.6122095897182402,-0.33851071912980585,2.263157894736842,27957.899999999994,8-9-4-3
21,8,9,5,1,202,0.6369253583786456,-0.2947234525545249,2.2580645161290325,41439.09580000007,8-9-5-1
22,8,9,5,2,159,0.6453287197231834,-0.2969543127738128,2.533333333333333,45600.74500000004,8-9-5-2
23,8,9,5,3,62,0.6643598615916955,-0.263850805353284,3.1333333333333333,43681.85360000002,8-9-5-3
24,8,10,3,1,216,0.6613939693524469,-0.36432864036355705,1.9189189189189189,38441.13769999997,8-10-3-1
25,8,10,3,2,163,0.6507661888284726,-0.3618916562500211,3.075,51380.24350000003,8-10-3-2
26,8,10,3,3,62,0.6151754819574888,-0.31497815343981256,3.4285714285714284,43490.98920000002,8-10-3-3
27,8,10,4,1,207,0.6473059812160158,-0.35064174986704794,2.1846153846153844,39919.834400000014,8-10-4-1
28,8,10,4,2,167,0.6487889273356401,-0.24281976408880362,2.5531914893617023,41827.469999999994,8-10-4-2
29,8,10,4,3,68,0.6366782006920415,-0.2802348864676301,2.7777777777777777,31866.16,8-10-4-3
30,8,10,5,1,190,0.6554621848739496,-0.35016113230929735,2.8,42574.42520000005,8-10-5-1
31,8,10,5,2,163,0.6337123084527929,-0.2922457171355728,2.4680851063829787,34833.69419999998,8-10-5-2
32,8,10,5,3,84,0.6085022244191794,-0.28866373819002766,2.8181818181818183,33275.49549999999,8-10-5-3
33,8,12,3,1,190,0.6584280771131982,-0.35782357107076807,2.7254901960784315,42645.847400000006,8-12-3-1
34,8,12,3,2,151,0.643598615916955,-0.3911320337255336,2.775,33744.98849999998,8-12-3-2
35,8,12,3,3,80,0.5857637172516065,-0.28763161622867045,2.8095238095238093,30646.42540000001,8-12-3-3
36,8,12,4,1,180,0.6438457736035591,-0.38409287051025276,2.75,39402.27419999997,8-12-4-1
37,8,12,4,2,148,0.6285219970341077,-0.3006181239855063,3.111111111111111,38774.69840000001,8-12-4-2
38,8,12,4,3,90,0.5753830944142363,-0.2845765301639624,2.4615384615384617,32966.31299999998,8-12-4-3
39,8,12,5,1,171,0.6408798813643104,-0.37912238871060233,2.6382978723404253,34380.9546,8-12-5-1
40,8,12,5,2,153,0.6208601087493821,-0.28416797928964865,2.825,38921.93400000004,8-12-5-2
41,8,12,5,3,98,0.5781018289668809,-0.2570120846766846,2.5,37397.96199999999,8-12-5-3
42,8,14,3,1,163,0.6406327236777064,-0.30814375038603203,3.1794871794871793,56762.01050000001,8-14-3-1
43,8,14,3,2,142,0.6171527434503213,-0.4143376435990084,2.736842105263158,38998.24280000003,8-14-3-2
44,8,14,3,3,79,0.5160652496292635,-0.3107284241705082,2.761904761904762,38161.69539999999,8-14-3-3
45,8,14,4,1,162,0.6282748393475037,-0.38160626846520856,2.6818181818181817,41141.50919999999,8-14-4-1
46,8,14,4,2,142,0.6272862086010875,-0.24428800194254935,2.8378378378378377,45715.732000000025,8-14-4-2
47,8,14,4,3,98,0.5232328225407811,-0.24290883293740803,2.5,33223.90499999999,8-14-4-3
48,8,14,5,1,154,0.6218487394957983,-0.3830322904761133,2.5813953488372094,44403.65599999998,8-14-5-1
49,8,14,5,2,140,0.6151754819574888,-0.2569623842579672,3.242424242424242,51918.459800000026,8-14-5-2
50,8,14,5,3,104,0.5664854176964904,-0.2515660165219061,2.586206896551724,32163.694000000007,8-14-5-3
51,8,16,3,1,151,0.6339594661393969,-0.3396360077096439,3.3142857142857145,54661.92979999991,8-16-3-1
52,8,16,3,2,129,0.6248146317350469,-0.3630865442278317,3.03125,50990.91500000001,8-16-3-2
53,8,16,3,3,83,0.5004943153732081,-0.2422365235436534,3.8823529411764706,60594.515000000014,8-16-3-3
54,8,16,4,1,150,0.6329708353929807,-0.4066547375200435,3.1666666666666665,52720.34669999997,8-16-4-1
55,8,16,4,2,133,0.6371725160652496,-0.26986095371994084,4.115384615384615,64195.86480000004,8-16-4-2
56,8,16,4,3,94,0.5679683638161147,-0.3521963061069759,2.6153846153846154,37204.44040000001,8-16-4-3
57,8,16,5,1,147,0.6258032624814631,-0.37877769424364693,3.0833333333333335,53166.697000000015,8-16-5-1
58,8,16,5,2,133,0.611220958971824,-0.33824936985070303,3.925925925925926,48991.005000000056,8-16-5-2
59,8,16,5,3,105,0.5551161641127039,-0.3329916515800354,3.0384615384615383,37600.53999999998,8-16-5-3
60,8,18,3,1,143,0.6339594661393969,-0.3949694983795018,3.46875,45796.515000000014,8-18-3-1
61,8,18,3,2,122,0.5865051903114187,-0.38837091026052917,3.357142857142857,46048.520000000026,8-18-3-2
62,8,18,3,3,77,0.4752842313395947,-0.2791319693394691,2.85,30160.434800000006,8-18-3-3
63,8,18,4,1,140,0.6324765200197726,-0.32137000958602424,3.5161290322580645,66118.30290000002,8-18-4-1
64,8,18,4,2,125,0.6129510627780524,-0.30118224432093216,4.0,52667.642800000045,8-18-4-2
65,8,18,4,3,89,0.5358378645575878,-0.3154899108035187,2.7083333333333335,41256.231600000014,8-18-4-3
66,8,18,5,1,138,0.6245674740484429,-0.3356752101634917,3.4516129032258065,59464.63999999999,8-18-5-1
67,8,18,5,2,131,0.6077607513593672,-0.27073578260695536,3.5172413793103448,57527.61500000005,8-18-5-2
68,8,18,5,3,100,0.5781018289668809,-0.26075996995006295,2.7037037037037037,44671.804600000054,8-18-5-3
69,8,20,3,1,138,0.6354424122590212,-0.38896610795892483,3.6,49004.32500000001,8-20-3-1
70,8,20,3,2,118,0.6047948591201187,-0.39204205728345526,3.3703703703703702,46129.477000000035,8-20-3-2
71,8,20,3,3,74,0.5027187345526446,-0.27446178300003876,3.933333333333333,31112.149599999997,8-20-3-3
72,8,20,4,1,135,0.6304992585269402,-0.33094573526779586,3.3548387096774195,54846.996499999994,8-20-4-1
73,8,20,4,2,123,0.6000988630746417,-0.28530599121146094,3.2413793103448274,48575.45500000005,8-20-4-2
74,8,20,4,3,86,0.5301532377656946,-0.28215890212874,3.0952380952380953,36397.318000000014,8-20-4-3
75,8,20,5,1,129,0.634206623826001,-0.3916145137849856,3.4482758620689653,52011.609999999986,8-20-5-1
76,8,20,5,2,124,0.6216015818091942,-0.3207670618179832,3.5925925925925926,52413.330000000016,8-20-5-2
77,8,20,5,3,97,0.5835392980721701,-0.32884490028606306,3.409090909090909,36574.0626,8-20-5-3
78,8,22,3,1,130,0.6507661888284726,-0.4058255472595212,3.4827586206896552,46801.87000000005,8-22-3-1
79,8,22,3,2,110,0.6201186356895699,-0.4340997169469968,3.5833333333333335,38086.495000000024,8-22-3-2
80,8,22,3,3,74,0.5192782995551162,-0.3735503559544219,4.285714285714286,30227.684400000016,8-22-3-3
81,8,22,4,1,128,0.6398912506178942,-0.3852680479514789,3.2666666666666666,51620.34499999997,8-22-4-1
82,8,22,4,2,112,0.6166584280771132,-0.3215551904164031,3.6666666666666665,51098.524999999994,8-22-4-2
83,8,22,4,3,87,0.5625308947108255,-0.3404310141571941,3.35,34267.474799999996,8-22-4-3
84,8,22,5,1,122,0.6255561047948591,-0.40627949933667273,3.357142857142857,47241.37999999998,8-22-5-1
85,8,22,5,2,114,0.6119624320316361,-0.33615522744975707,3.9565217391304346,49925.16000000003,8-22-5-2
86,8,22,5,3,88,0.5635195254572417,-0.34004044945550316,3.1904761904761907,39295.182600000015,8-22-5-3
87,8,24,3,1,124,0.6487889273356401,-0.45859088020935523,3.4285714285714284,43970.58949999997,8-24-3-1
88,8,24,3,2,101,0.6035590706870984,-0.4343392527324034,3.391304347826087,32717.37840000003,8-24-3-2
89,8,24,3,3,66,0.513593672763223,-0.37418072110226175,3.7142857142857144,26991.8446,8-24-3-3
90,8,24,4,1,122,0.6337123084527929,-0.3915218112573665,3.206896551724138,46738.955000000016,8-24-4-1
91,8,24,4,2,107,0.6109738012852199,-0.3142376338381925,4.35,53363.377600000014,8-24-4-2
92,8,24,4,3,80,0.5383094414236282,-0.26554815289607664,4.0,47891.870000000024,8-24-4-3
93,8,24,5,1,117,0.6347009391992091,-0.41207345632306214,3.3333333333333335,50879.19730000004,8-24-5-1
94,8,24,5,2,109,0.6218487394957983,-0.33083761039297005,3.739130434782609,53777.34970000005,8-24-5-2
95,8,24,5,3,87,0.5662382600098863,-0.2550713241156169,3.8333333333333335,51030.56000000006,8-24-5-3
96,9,9,3,1,0,0.0,0.0,0.0,10000.0,9-9-3-1
97,9,9,3,2,0,0.0,0.0,0.0,10000.0,9-9-3-2
98,9,9,3,3,0,0.0,0.0,0.0,10000.0,9-9-3-3
99,9,9,4,1,0,0.0,0.0,0.0,10000.0,9-9-4-1
100,9,9,4,2,0,0.0,0.0,0.0,10000.0,9-9-4-2
101,9,9,4,3,0,0.0,0.0,0.0,10000.0,9-9-4-3
102,9,9,5,1,0,0.0,0.0,0.0,10000.0,9-9-5-1
103,9,9,5,2,0,0.0,0.0,0.0,10000.0,9-9-5-2
104,9,9,5,3,0,0.0,0.0,0.0,10000.0,9-9-5-3
0,9,10,3,1,201,0.6485417696490361,-0.3486436939549744,2.526315789473684,46303.20109999999,9-10-3-1
1,9,10,3,2,126,0.6312407315867523,-0.3550738187882155,2.9375,41406.02760000002,9-10-3-2
2,9,10,3,3,49,0.596885813148789,-0.22909827928524157,2.769230769230769,40094.714999999975,9-10-3-3
3,9,10,4,1,195,0.6641127039050915,-0.3231596090596154,2.823529411764706,56258.411700000055,9-10-4-1
4,9,10,4,2,147,0.6987147800296589,-0.2985919201284353,2.5853658536585367,65063.056499999904,9-10-4-2
5,9,10,4,3,58,0.648047454275828,-0.25411479234717677,2.8666666666666667,37220.725999999995,9-10-4-3
6,9,10,5,1,186,0.6539792387543253,-0.28074610684076606,3.0434782608695654,54737.65990000003,9-10-5-1
7,9,10,5,2,143,0.6769649036085023,-0.25771034111630475,2.575,59368.05249999997,9-10-5-2
8,9,10,5,3,73,0.657439446366782,-0.24587239289974597,2.65,40257.68399999999,9-10-5-3
9,9,12,3,1,185,0.6517548195748888,-0.2773239123873721,2.8541666666666665,47571.64149999998,9-12-3-1
10,9,12,3,2,143,0.6223430548690064,-0.35863793533938143,2.4878048780487805,31093.994,9-12-3-2
11,9,12,3,3,78,0.6087493821057834,-0.2156091079620324,2.9,39505.29999999995,9-12-3-3
12,9,12,4,1,170,0.638902619871478,-0.2983273909403323,2.617021276595745,40110.308399999994,9-12-4-1
13,9,12,4,2,147,0.6307464162135442,-0.29002951332470545,2.8684210526315788,37085.375399999946,9-12-4-2
14,9,12,4,3,91,0.6319822046465645,-0.33444203196019595,2.3703703703703702,30319.731999999953,9-12-4-3
15,9,12,5,1,163,0.6347009391992091,-0.28659388947228015,2.3958333333333335,46245.924400000025,9-12-5-1
16,9,12,5,2,151,0.6458230350963915,-0.3036665875365735,2.871794871794872,45671.279600000016,9-12-5-2
17,9,12,5,3,100,0.6473059812160158,-0.3395449324633018,2.125,26807.21219999999,9-12-5-3
18,9,14,3,1,160,0.6285219970341077,-0.3359723389249182,2.6363636363636362,42389.35160000001,9-14-3-1
19,9,14,3,2,131,0.6025704399406822,-0.2764499289410966,3.09375,44815.884999999995,9-14-3-2
20,9,14,3,3,79,0.5491843796342066,-0.2961016813953004,2.0384615384615383,24815.235000000008,9-14-3-3
21,9,14,4,1,156,0.629757785467128,-0.3409516273360926,2.391304347826087,39650.90639999997,9-14-4-1
22,9,14,4,2,136,0.6178942165101334,-0.2701653607652746,2.8857142857142857,44374.239599999964,9-14-4-2
23,9,14,4,3,94,0.5751359367276322,-0.3246319967043616,2.6153846153846154,37229.80820000001,9-14-4-3
24,9,14,5,1,149,0.6324765200197726,-0.32773939318047907,3.138888888888889,53650.190299999995,9-14-5-1
25,9,14,5,2,135,0.6186356895699456,-0.33146361494061943,3.21875,52608.96600000003,9-14-5-2
26,9,14,5,3,105,0.5622837370242214,-0.32473752640581516,2.888888888888889,40207.59939999997,9-14-5-3
27,9,16,3,1,148,0.6356895699456253,-0.33797407170870075,3.111111111111111,51331.031200000056,9-16-3-1
28,9,16,3,2,125,0.6124567474048442,-0.2678434756886457,3.310344827586207,57159.29600000003,9-16-3-2
29,9,16,3,3,84,0.5753830944142363,-0.3818112299725254,3.4210526315789473,33566.43860000001,9-16-3-3
30,9,16,4,1,146,0.6309935739001483,-0.3074768630879434,3.1714285714285713,61669.35039999992,9-16-4-1
31,9,16,4,2,132,0.6270390509144834,-0.3500110381829562,3.2580645161290325,65766.78320000006,9-16-4-2
32,9,16,4,3,100,0.583292140385566,-0.42247676677136503,3.1666666666666665,40058.53800000001,9-16-4-3
33,9,16,5,1,141,0.625061789421651,-0.2627318902335094,3.272727272727273,57387.53499999999,9-16-5-1
34,9,16,5,2,133,0.6154226396440929,-0.3062482394177867,3.433333333333333,58282.80900000005,9-16-5-2
35,9,16,5,3,103,0.5840336134453782,-0.3625343214428004,3.12,43433.62520000001,9-16-5-3
36,9,18,3,1,141,0.6285219970341077,-0.3211193585593632,3.272727272727273,54501.82400000001,9-18-3-1
37,9,18,3,2,121,0.6055363321799307,-0.30111074492968337,3.4814814814814814,52263.11000000004,9-18-3-2
38,9,18,3,3,76,0.5531389026198715,-0.34736347781564514,2.8,29100.35120000001,9-18-3-3
39,9,18,4,1,138,0.6309935739001483,-0.328864770221954,2.942857142857143,62446.25619999999,9-18-4-1
40,9,18,4,2,126,0.6267918932278794,-0.34762524206035,3.2,55788.65200000004,9-18-4-2
41,9,18,4,3,94,0.5627780523974295,-0.38467925531215813,2.9166666666666665,36762.32600000003,9-18-4-3
42,9,18,5,1,132,0.6332179930795848,-0.3454859610058851,3.4,58478.159400000055,9-18-5-1
43,9,18,5,2,125,0.6228373702422145,-0.33849678729261984,3.310344827586207,60265.82600000008,9-18-5-2
44,9,18,5,3,101,0.5704399406821552,-0.32406142401375587,3.590909090909091,50322.26610000004,9-18-5-3
45,9,20,3,1,133,0.6332179930795848,-0.36278342909637323,3.75,58140.20999999999,9-20-3-1
46,9,20,3,2,114,0.6082550667325753,-0.3172300596348708,3.3846153846153846,39864.785,9-20-3-2
47,9,20,3,3,77,0.5150766188828473,-0.33841090334299007,3.2777777777777777,31446.253400000012,9-20-3-3
48,9,20,4,1,129,0.6364310430054375,-0.3695280669642827,3.03125,52070.77500000003,9-20-4-1
49,9,20,4,2,114,0.6134453781512605,-0.31415579003188077,3.9565217391304346,52763.423600000024,9-20-4-2
50,9,20,4,3,90,0.5827978250123579,-0.2710833198954214,3.5,39038.625,9-20-4-3
51,9,20,5,1,124,0.6359367276322294,-0.3506123269266447,3.2758620689655173,60350.98500000001,9-20-5-1
52,9,20,5,2,120,0.6238260009886307,-0.3311499242339978,3.4444444444444446,58563.96320000002,9-20-5-2
53,9,20,5,3,99,0.583292140385566,-0.28146794546024656,3.95,55519.18500000007,9-20-5-3
54,9,22,3,1,129,0.6319822046465645,-0.35951404232461026,3.161290322580645,50995.91500000003,9-22-3-1
55,9,22,3,2,110,0.5976272862086011,-0.32992997499601756,3.782608695652174,42662.87000000007,9-22-3-2
56,9,22,3,3,75,0.5061789421651013,-0.36722306150255446,4.357142857142857,31467.44999999999,9-22-3-3
57,9,22,4,1,122,0.6272862086010875,-0.350432064335129,3.5185185185185186,53063.909999999996,9-22-4-1
58,9,22,4,2,111,0.6127039050914483,-0.31366122221877424,3.269230769230769,48666.163400000056,9-22-4-2
59,9,22,4,3,87,0.5716757291151755,-0.2493037119608351,3.142857142857143,40959.798700000036,9-22-4-3
60,9,22,5,1,117,0.6262975778546713,-0.3612046429958136,3.68,57316.46460000004,9-22-5-1
61,9,22,5,2,113,0.6208601087493821,-0.33226448772477496,3.3461538461538463,63427.70820000004,9-22-5-2
62,9,22,5,3,94,0.5714285714285714,-0.268427809042245,3.7,55746.274400000046,9-22-5-3
63,9,24,3,1,121,0.6285219970341077,-0.38273671627897143,3.1724137931034484,50266.399999999994,9-24-3-1
64,9,24,3,2,105,0.5986159169550173,-0.32004036318480633,4.25,50327.90000000005,9-24-3-2
65,9,24,3,3,69,0.5121107266435986,-0.344587148496317,4.3076923076923075,31626.229999999985,9-24-3-3
66,9,24,4,1,118,0.6393969352446861,-0.4266773090933807,3.0689655172413794,51613.33040000005,9-24-4-1
67,9,24,4,2,108,0.6141868512110726,-0.42251463855277166,2.857142857142857,42623.65290000003,9-24-4-2
68,9,24,4,3,80,0.518536826495304,-0.31228288372290997,3.210526315789474,36443.27010000002,9-24-4-3
69,9,24,5,1,111,0.6322293623331685,-0.38419485963725275,3.269230769230769,48945.89620000002,9-24-5-1
70,9,24,5,2,106,0.6243203163618388,-0.3843225557710589,3.608695652173913,47833.303400000055,9-24-5-2
71,9,24,5,3,92,0.5800790904597133,-0.3190812466134757,4.111111111111111,58243.28409999999,9-24-5-3
72,10,10,3,1,0,0.0,0.0,0.0,10000.0,10-10-3-1
73,10,10,3,2,0,0.0,0.0,0.0,10000.0,10-10-3-2
74,10,10,3,3,0,0.0,0.0,0.0,10000.0,10-10-3-3
75,10,10,4,1,0,0.0,0.0,0.0,10000.0,10-10-4-1
76,10,10,4,2,0,0.0,0.0,0.0,10000.0,10-10-4-2
77,10,10,4,3,0,0.0,0.0,0.0,10000.0,10-10-4-3
78,10,10,5,1,0,0.0,0.0,0.0,10000.0,10-10-5-1
79,10,10,5,2,0,0.0,0.0,0.0,10000.0,10-10-5-2
80,10,10,5,3,0,0.0,0.0,0.0,10000.0,10-10-5-3
81,10,12,3,1,180,0.6438457736035591,-0.328471076825499,2.3333333333333335,33341.80099999997,10-12-3-1
82,10,12,3,2,135,0.6460701927829956,-0.2989201430469538,2.75,36343.012200000005,10-12-3-2
83,10,12,3,3,63,0.6369253583786456,-0.30107954430890216,2.0,20365.360000000026,10-12-3-3
84,10,12,4,1,171,0.6408798813643104,-0.28606511225122033,2.1666666666666665,33661.72529999997,10-12-4-1
85,10,12,4,2,138,0.6309935739001483,-0.30757433658251626,2.45,35965.857599999996,10-12-4-2
86,10,12,4,3,75,0.652743450321305,-0.27244405602215094,2.409090909090909,28969.485100000005,10-12-4-3
87,10,12,5,1,162,0.6371725160652496,-0.2628780688315083,2.4468085106382977,44026.53850000003,10-12-5-1
88,10,12,5,2,137,0.6302521008403361,-0.29099863201094395,2.261904761904762,42366.04799999996,10-12-5-2
89,10,12,5,3,87,0.6366782006920415,-0.2690664916129162,2.9545454545454546,30222.93640000001,10-12-5-3
90,10,14,3,1,159,0.6445872466633712,-0.32964340478625015,2.4565217391304346,43704.26799999996,10-14-3-1
91,10,14,3,2,126,0.6322293623331685,-0.312497856406846,2.4054054054054053,42294.71380000001,10-14-3-2
92,10,14,3,3,82,0.5472071181413742,-0.44707542431424085,3.3157894736842106,41624.50959999999,10-14-3-3
93,10,14,4,1,152,0.6401384083044983,-0.3306548378557877,2.4545454545454546,44326.3149,10-14-4-1
94,10,14,4,2,131,0.6223430548690064,-0.2939844805557935,3.225806451612903,57146.0406,10-14-4-2
95,10,14,4,3,89,0.5380622837370242,-0.3291223082018063,3.238095238095238,44726.06100000003,10-14-4-3
96,10,14,5,1,146,0.6391497775580821,-0.30923685174535,2.5609756097560976,49780.08779999997,10-14-5-1
97,10,14,5,2,132,0.6267918932278794,-0.3139483667246714,2.8823529411764706,47104.600999999995,10-14-5-2
98,10,14,5,3,101,0.5907068709836876,-0.2890683420261378,3.2083333333333335,46245.48060000005,10-14-5-3
99,10,16,3,1,147,0.6418685121107266,-0.2735946935771355,3.0833333333333335,55968.419200000004,10-16-3-1
100,10,16,3,2,124,0.6201186356895699,-0.27867102672802174,3.96,65097.680000000066,10-16-3-2
101,10,16,3,3,85,0.5491843796342066,-0.32779975104280745,3.7222222222222223,59717.97090000002,10-16-3-3
102,10,16,4,1,148,0.6309935739001483,-0.31676152846002564,2.7948717948717947,52474.23000000004,10-16-4-1
103,10,16,4,2,130,0.6188828472565496,-0.31611143678012854,3.193548387096774,51744.64820000003,10-16-4-2
104,10,16,4,3,93,0.5437469105289174,-0.3195899649312113,2.72,46172.954100000046,10-16-4-3
0,10,16,5,1,139,0.629510627780524,-0.31803918067513653,2.7567567567567566,60592.370000000024,10-16-5-1
1,10,16,5,2,132,0.6176470588235294,-0.3095404250640591,2.8823529411764706,59430.70500000007,10-16-5-2
2,10,16,5,3,105,0.5563519525457242,-0.28255984374751986,3.2,61827.05500000005,10-16-5-3
3,10,18,3,1,139,0.6401384083044983,-0.31451024331426125,2.6578947368421053,58963.679400000015,10-18-3-1
4,10,18,3,2,125,0.6287691547207118,-0.3393976133235056,3.1666666666666665,50866.4359,10-18-3-2
5,10,18,3,3,84,0.5706870983687593,-0.3393832403753131,3.0,57387.49510000001,10-18-3-3
6,10,18,4,1,133,0.6369253583786456,-0.3834570992587961,2.911764705882353,53558.121200000016,10-18-4-1
7,10,18,4,2,122,0.6265447355412753,-0.35213645736740995,2.8125,61669.585200000074,10-18-4-2
8,10,18,4,3,93,0.5595650024715768,-0.37753098421501785,2.875,45125.46600000005,10-18-4-3
9,10,18,5,1,131,0.6376668314384577,-0.4026697475818181,3.09375,55412.83339999998,10-18-5-1
10,10,18,5,2,123,0.620612951062778,-0.3852927860583703,3.2413793103448274,61172.188000000075,10-18-5-2
11,10,18,5,3,104,0.5768660405338606,-0.32145141636977637,3.5217391304347827,62347.33460000003,10-18-5-3
12,10,20,3,1,129,0.6408798813643104,-0.33245554606554933,3.3,52412.07499999999,10-20-3-1
13,10,20,3,2,109,0.5907068709836876,-0.2956712774735694,3.9545454545454546,37364.97000000001,10-20-3-2
14,10,20,3,3,78,0.48640632723677707,-0.2956304776996852,3.875,43107.95710000001,10-20-3-3
15,10,20,4,1,126,0.6359367276322294,-0.3371058458602811,3.3448275862068964,55061.350000000035,10-20-4-1
16,10,20,4,2,113,0.6010874938210579,-0.29303500995011617,3.7083333333333335,59935.15380000006,10-20-4-2
17,10,20,4,3,90,0.5294117647058824,-0.2728828887281513,4.0,47190.92520000004,10-20-4-3
18,10,20,5,1,121,0.6280276816608996,-0.39715737841974985,3.3214285714285716,53800.35680000004,10-20-5-1
19,10,20,5,2,117,0.615916955017301,-0.37196258014066397,3.3333333333333335,61250.95400000008,10-20-5-2
20,10,20,5,3,97,0.5459713297083539,-0.359518414964165,3.0416666666666665,41900.42980000003,10-20-5-3
21,10,22,3,1,123,0.6374196737518537,-0.33210796716009366,3.2413793103448274,52789.14499999998,10-22-3-1
22,10,22,3,2,100,0.5916955017301038,-0.2961188527413156,4.2631578947368425,41294.810000000034,10-22-3-2
23,10,22,3,3,68,0.5118635689569946,-0.22092094673256238,3.0,38783.92830000003,10-22-3-3
24,10,22,4,1,119,0.6312407315867523,-0.33706643246381623,3.25,58386.29000000001,10-22-4-1
25,10,22,4,2,109,0.6050420168067226,-0.31987323817327956,3.739130434782609,61026.211000000076,10-22-4-2
26,10,22,4,3,85,0.5190311418685121,-0.24903281910523592,3.7222222222222223,55061.31209999998,10-22-4-3
27,10,22,5,1,113,0.6262975778546713,-0.43588534240638566,3.3461538461538463,48711.96879999999,10-22-5-1
28,10,22,5,2,110,0.6102323282254078,-0.4470665028147457,2.9285714285714284,44241.68800000006,10-22-5-2
29,10,22,5,3,92,0.5561047948591201,-0.4139291561865246,3.380952380952381,39623.9133,10-22-5-3
30,10,24,3,1,117,0.6332179930795848,-0.36714148297426635,3.3333333333333335,51407.690000000046,10-24-3-1
31,10,24,3,2,98,0.5887296094908552,-0.3827334810379936,3.260869565217391,34388.650500000025,10-24-3-2
32,10,24,3,3,69,0.5224913494809689,-0.24498155820146103,3.0588235294117645,38445.21110000002,10-24-3-3
33,10,24,4,1,113,0.6366782006920415,-0.3817391159466171,3.9130434782608696,50798.36060000002,10-24-4-1
34,10,24,4,2,106,0.606772120612951,-0.3941748591062065,3.8181818181818183,49017.61150000004,10-24-4-2
35,10,24,4,3,83,0.5363321799307958,-0.3601652560102514,3.3684210526315788,38136.18289999999,10-24-4-3
36,10,24,5,1,111,0.6314878892733564,-0.43672402217376594,3.269230769230769,45505.333200000045,10-24-5-1
37,10,24,5,2,109,0.6233316856154226,-0.4477831890472441,3.037037037037037,45256.63400000005,10-24-5-2
38,10,24,5,3,92,0.5533860603064755,-0.4147226524564656,3.0,33932.247599999995,10-24-5-3
39,11,12,3,1,172,0.6406327236777064,-0.3310643616380314,2.6595744680851063,41185.01739999999,11-12-3-1
40,11,12,3,2,115,0.6193771626297578,-0.31557913991514813,2.3823529411764706,34611.22950000002,11-12-3-2
41,11,12,3,3,46,0.6262975778546713,-0.2960121317938219,1.875,35964.515000000014,11-12-3-3
42,11,12,4,1,165,0.643351458230351,-0.35075213352746387,2.5869565217391304,41937.944500000005,11-12-4-1
43,11,12,4,2,127,0.6500247157686604,-0.36805440554653973,2.2564102564102564,29633.137999999995,11-12-4-2
44,11,12,4,3,56,0.6673257538309442,-0.3972177360201425,2.2941176470588234,26571.752200000003,11-12-4-3
45,11,12,5,1,160,0.6371725160652496,-0.33904665940076895,2.5555555555555554,45409.52220000003,11-12-5-1
46,11,12,5,2,137,0.6450815620365793,-0.4377586882613285,2.425,29247.241800000007,11-12-5-2
47,11,12,5,3,73,0.6386554621848739,-0.25715702660064677,2.65,33069.867,11-12-5-3
48,11,14,3,1,155,0.6475531389026199,-0.368629686320011,2.4444444444444446,41104.90059999997,11-14-3-1
49,11,14,3,2,127,0.625061789421651,-0.4057544631342926,2.6285714285714286,39708.90469999997,11-14-3-2
50,11,14,3,3,71,0.6554621848739496,-0.2997567200804371,3.176470588235294,37313.220799999996,11-14-3-3
51,11,14,4,1,149,0.6448344043499753,-0.3060918698645843,2.5476190476190474,43776.27599999999,11-14-4-1
52,11,14,4,2,129,0.6495304003954523,-0.3602752494247853,2.909090909090909,51588.299100000026,11-14-4-2
53,11,14,4,3,79,0.6851211072664359,-0.238371679977383,3.388888888888889,42326.87039999999,11-14-4-3
54,11,14,5,1,148,0.6428571428571429,-0.3857936914993791,2.7,44098.46799999996,11-14-5-1
55,11,14,5,2,135,0.6569451309935739,-0.4001252371109532,2.9705882352941178,55555.77770000002,11-14-5-2
56,11,14,5,3,95,0.6312407315867523,-0.2910208587118319,2.8,41731.960000000036,11-14-5-3
57,11,16,3,1,144,0.6478002965892239,-0.40422109703589376,2.891891891891892,49376.852800000015,11-16-3-1
58,11,16,3,2,124,0.6517548195748888,-0.434136386155982,2.875,61233.69740000003,11-16-3-2
59,11,16,3,3,80,0.6117152743450321,-0.3849927460095049,3.7058823529411766,35573.28670000004,11-16-3-3
60,11,16,4,1,141,0.6416213544241226,-0.410140899237577,2.710526315789474,49750.7168,11-16-4-1
61,11,16,4,2,133,0.6438457736035591,-0.4358633861279547,2.5945945945945947,51959.73160000008,11-16-4-2
62,11,16,4,3,100,0.5825506673257538,-0.3345909291190016,3.347826086956522,54117.747000000054,11-16-4-3
63,11,16,5,1,136,0.6351952545724172,-0.3921993204792291,2.675675675675676,55955.676199999994,11-16-5-1
64,11,16,5,2,133,0.6300049431537321,-0.45520760248365344,2.5,44953.657000000065,11-16-5-2
65,11,16,5,3,107,0.5931784478497282,-0.36183123401490624,3.1153846153846154,52286.77980000006,11-16-5-3
66,11,18,3,1,133,0.6507661888284726,-0.4436660417263899,2.8,48639.736999999994,11-18-3-1
67,11,18,3,2,118,0.6374196737518537,-0.4340953226077067,3.0689655172413794,47928.13820000003,11-18-3-2
68,11,18,3,3,78,0.5365793376174,-0.33315794214134536,3.3333333333333335,31219.570200000053,11-18-3-3
69,11,18,4,1,128,0.6495304003954523,-0.4524544478317587,3.0,46865.3438,11-18-4-1
70,11,18,4,2,119,0.6270390509144834,-0.44275521450283245,2.966666666666667,48234.91550000001,11-18-4-2
71,11,18,4,3,90,0.5318833415719229,-0.3049605824819575,4.0,51288.81520000003,11-18-4-3
72,11,18,5,1,125,0.6386554621848739,-0.4072022032005957,3.310344827586207,54514.00339999995,11-18-5-1
73,11,18,5,2,120,0.6290163124073158,-0.3700490333273963,3.1379310344827585,63668.977000000064,11-18-5-2
74,11,18,5,3,104,0.578843302026693,-0.3586772777167948,3.16,48569.93620000004,11-18-5-3
75,11,20,3,1,127,0.6529906080079091,-0.3926046892818341,3.5357142857142856,55897.335000000036,11-20-3-1
76,11,20,3,2,106,0.6171527434503213,-0.3821169190382881,4.3,50664.979300000035,11-20-3-2
77,11,20,3,3,72,0.5103806228373703,-0.336129265748409,3.235294117647059,25140.355000000003,11-20-3-3
78,11,20,4,1,123,0.638902619871478,-0.43421499602833435,3.392857142857143,48955.778399999974,11-20-4-1
79,11,20,4,2,114,0.6164112703905091,-0.42108457808642513,3.3846153846153846,55846.04160000009,11-20-4-2
80,11,20,4,3,88,0.546465645081562,-0.4196048222848645,2.8260869565217392,25646.616200000004,11-20-4-3
81,11,20,5,1,121,0.6403855659911023,-0.4649627360311929,3.1724137931034484,47666.603100000044,11-20-5-1
82,11,20,5,2,115,0.6230845279288186,-0.3402574512121978,3.107142857142857,66099.9403000001,11-20-5-2
83,11,20,5,3,102,0.5580820563519525,-0.31844910342487864,2.923076923076923,45287.6752,11-20-5-3
84,11,22,3,1,120,0.648294611962432,-0.42906346971612447,3.1379310344827585,52389.015000000036,11-22-3-1
85,11,22,3,2,106,0.6171527434503213,-0.4502121020861585,3.608695652173913,53139.93820000004,11-22-3-2
86,11,22,3,3,74,0.5111220958971824,-0.4187364453944777,3.111111111111111,24441.364000000012,11-22-3-3
87,11,22,4,1,115,0.6418685121107266,-0.48062300383058193,3.107142857142857,44915.236200000014,11-22-4-1
88,11,22,4,2,111,0.6262975778546713,-0.484103653474893,3.269230769230769,43406.70030000006,11-22-4-2
89,11,22,4,3,89,0.5716757291151755,-0.4669472573019619,2.869565217391304,33612.572799999994,11-22-4-3
90,11,22,5,1,112,0.634206623826001,-0.43600852180150484,3.3076923076923075,40190.51650000003,11-22-5-1
91,11,22,5,2,111,0.6169055857637172,-0.39290966768221103,3.625,51757.75720000005,11-22-5-2
92,11,22,5,3,91,0.5546218487394958,-0.42476268376862447,2.5,31821.010000000002,11-22-5-3
93,11,24,3,1,113,0.6431043005437469,-0.41551831967144676,3.185185185185185,45848.9181,11-24-3-1
94,11,24,3,2,101,0.6099851705388037,-0.392502329986987,4.05,46480.87830000005,11-24-3-2
95,11,24,3,3,68,0.48912506178942167,-0.36637000389007235,3.0,22835.34500000002,11-24-3-3
96,11,24,4,1,111,0.6371725160652496,-0.43393201909982276,3.625,46662.29499999998,11-24-4-1
97,11,24,4,2,103,0.6198714780029659,-0.43719527650742984,3.12,42972.64100000006,11-24-4-2
98,11,24,4,3,83,0.5484429065743944,-0.3466361875999365,2.608695652173913,32595.895000000008,11-24-4-3
99,11,24,5,1,110,0.6413741967375185,-0.49311669421041243,3.4,43501.79159999998,11-24-5-1
100,11,24,5,2,107,0.6258032624814631,-0.392816390828728,3.4583333333333335,49016.738000000056,11-24-5-2
101,11,24,5,3,89,0.5808205635195255,-0.37153611510424495,2.869565217391304,38843.965999999986,11-24-5-3
