,fast,slow,sig,delay,numSell,exposure,drawdown,winLoss,value,zzz
0,3,6,3,1,340,0.5667325753830944,-0.33010108150137857,2.269230769230769,37198.97,3-6-3-1
1,3,6,3,2,126,0.47429560059317843,-0.2494941395179798,2.8181818181818183,23072.830000000016,3-6-3-2
2,3,6,3,3,28,0.4718240237271379,-0.3764774731137385,1.5454545454545454,12940.229999999996,3-6-3-3
3,3,6,4,1,304,0.5635195254572417,-0.2631140519652467,2.5764705882352943,42875.27,3-6-4-1
4,3,6,4,2,139,0.5096391497775581,-0.27023512339872147,4.346153846153846,38258.80999999998,3-6-4-2
5,3,6,4,3,38,0.4982698961937716,-0.18792004227853684,4.428571428571429,33724.590000000004,3-6-4-3
6,3,6,5,1,268,0.5489372219476025,-0.297304840608201,2.9411764705882355,38878.31999999999,3-6-5-1
7,3,6,5,2,136,0.5197726149283243,-0.3280468673804549,2.4871794871794872,20424.730000000018,3-6-5-2
8,3,6,5,3,34,0.4342560553633218,-0.3236197574513793,3.25,25530.950000000008,3-6-5-3
9,3,7,3,1,312,0.560306475531389,-0.2545519661484195,2.25,36910.27000000003,3-7-3-1
10,3,7,3,2,131,0.49110232328225406,-0.2804903869139092,2.5405405405405403,19808.449999999993,3-7-3-2
11,3,7,3,3,34,0.4391992090954029,-0.3243910804992357,1.8333333333333333,16419.840000000004,3-7-3-3
12,3,7,4,1,284,0.5612951062778052,-0.28146452372846237,2.55,37541.09,3-7-4-1
13,3,7,4,2,143,0.5252100840336135,-0.23294889191889032,3.3333333333333335,39408.58000000003,3-7-4-2
14,3,7,4,3,36,0.5242214532871973,-0.22797477031402344,6.2,40297.26999999998,3-7-4-3
15,3,7,5,1,257,0.5662382600098863,-0.2513939647071109,2.8358208955223883,42491.37999999998,3-7-5-1
16,3,7,5,2,147,0.5098863074641621,-0.35863556894691806,3.2,28881.15179999998,3-7-5-2
17,3,7,5,3,40,0.4807217004448838,-0.41404914762742523,3.0,19558.579999999987,3-7-5-3
18,3,8,3,1,295,0.5481957488877904,-0.32152912025686475,2.3146067415730336,31471.689999999995,3-8-3-1
19,3,8,3,2,132,0.49925852694018785,-0.23236597783353155,2.8823529411764706,27553.49999999998,3-8-3-2
20,3,8,3,3,34,0.5173010380622838,-0.3199012776540219,3.857142857142857,25636.129999999997,3-8-3-3
21,3,8,4,1,263,0.5563519525457242,-0.25363083604085046,2.6527777777777777,35438.30000000002,3-8-4-1
22,3,8,4,2,139,0.5291646070192783,-0.26952287630964045,2.7567567567567566,29875.9919,3-8-4-2
23,3,8,4,3,38,0.5187839841819081,-0.2710703859799697,3.2222222222222223,29060.44000000001,3-8-4-3
24,3,8,5,1,247,0.5664854176964904,-0.27323053677404957,2.6865671641791047,36379.88000000001,3-8-5-1
25,3,8,5,2,163,0.5165595650024716,-0.36363816456242853,2.975609756097561,27778.112099999995,3-8-5-2
26,3,8,5,3,42,0.5479485912011863,-0.3854255540277633,1.625,20549.999999999993,3-8-5-3
27,3,9,3,1,276,0.5474542758279782,-0.3328865742513592,2.4936708860759493,31108.530000000017,3-9-3-1
28,3,9,3,2,136,0.47923875432525953,-0.2327618941331305,2.7777777777777777,27467.53000000002,3-9-3-2
29,3,9,3,3,41,0.4836875926841325,-0.2696436016984872,3.5555555555555554,25539.48999999998,3-9-3-3
30,3,9,4,1,250,0.5570934256055363,-0.2616543417186035,2.7313432835820897,39572.439999999966,3-9-4-1
31,3,9,4,2,146,0.5088976767177459,-0.2709672984415092,3.5625,39571.99949999998,3-9-4-2
32,3,9,4,3,42,0.4656450815620366,-0.2981850254428807,2.230769230769231,18015.570000000007,3-9-4-3
33,3,9,5,1,234,0.5652496292634701,-0.28429870122541573,2.9,38726.920000000006,3-9-5-1
34,3,9,5,2,167,0.5254572417202175,-0.25563116021387616,2.9761904761904763,32376.101499999993,3-9-5-2
35,3,9,5,3,50,0.45724172021749876,-0.40650697205483854,2.5714285714285716,18242.279999999995,3-9-5-3
36,3,10,3,1,264,0.5425111220958971,-0.2638543734041524,2.473684210526316,29804.850000000002,3-10-3-1
37,3,10,3,2,133,0.48418190805734057,-0.2709160832943783,2.6944444444444446,24990.31000000002,3-10-3-2
38,3,10,3,3,41,0.43895205140879884,-0.39096482433499014,2.727272727272727,16950.879999999997,3-10-3-3
39,3,10,4,1,235,0.5568462679189323,-0.2791938908656693,2.983050847457627,39739.50999999998,3-10-4-1
40,3,10,4,2,146,0.5197726149283243,-0.2529616483212619,3.0555555555555554,37139.76019999998,3-10-4-2
41,3,10,4,3,45,0.4050914483440435,-0.27099518064564393,2.0,14851.410000000013,3-10-4-3
42,3,10,5,1,211,0.5551161641127039,-0.28607883005614965,3.22,38321.73999999999,3-10-5-1
43,3,10,5,2,158,0.5308947108255067,-0.3485314922191006,3.1578947368421053,31212.481200000035,3-10-5-2
44,3,10,5,3,40,0.3363816114681167,-0.39610173771997026,2.3333333333333335,13851.069999999998,3-10-5-3
45,3,12,3,1,240,0.5430054374691052,-0.36367489642758655,2.4285714285714284,23668.52,3-12-3-1
46,3,12,3,2,128,0.49555116164112706,-0.3054986951539506,2.657142857142857,21645.609999999997,3-12-3-2
47,3,12,3,3,40,0.43499752842313394,-0.3376654445746561,4.0,23181.339999999975,3-12-3-3
48,3,12,4,1,209,0.5499258526940188,-0.2879553103761961,3.18,37726.009999999995,3-12-4-1
49,3,12,4,2,135,0.5076618882847257,-0.279774268390643,3.090909090909091,30534.2716,3-12-4-2
50,3,12,4,3,44,0.48912506178942167,-0.3225002527902814,3.4,18373.130000000012,3-12-4-3
51,3,12,5,1,190,0.5528917449332674,-0.2540918583629447,3.2222222222222223,37079.709999999985,3-12-5-1
52,3,12,5,2,135,0.5269401878398419,-0.37805107200176535,2.6486486486486487,20255.434199999985,3-12-5-2
53,3,12,5,3,47,0.3892733564013841,-0.4045133344068349,2.6153846153846154,12938.789999999995,3-12-5-3
54,3,14,3,1,219,0.5385565991102323,-0.3363469028875706,2.7758620689655173,30657.179999999997,3-14-3-1
55,3,14,3,2,120,0.4822046465645082,-0.26812170936949486,3.4444444444444446,29322.84000000002,3-14-3-2
56,3,14,3,3,39,0.4967869500741473,-0.3384508690357315,3.3333333333333335,24356.18999999998,3-14-3-3
57,3,14,4,1,196,0.5437469105289174,-0.27750672509110474,3.3555555555555556,37282.68000000001,3-14-4-1
58,3,14,4,2,126,0.5059317844784973,-0.22770509074878045,3.064516129032258,28653.641999999993,3-14-4-2
59,3,14,4,3,34,0.43351458230350964,-0.3499545744283336,2.090909090909091,14132.840000000006,3-14-4-3
60,3,14,5,1,183,0.5392980721700444,-0.3151560255563582,3.066666666666667,36976.30000000003,3-14-5-1
61,3,14,5,2,135,0.5012357884330203,-0.3711668700921357,2.75,23374.51999999998,3-14-5-2
62,3,14,5,3,46,0.3526940187839842,-0.3604991201407768,2.2857142857142856,13454.279999999997,3-14-5-3
63,3,16,3,1,205,0.5346020761245674,-0.34316224536081047,2.9423076923076925,31197.49000000001,3-16-3-1
64,3,16,3,2,113,0.47553138902619874,-0.19716041032386003,3.185185185185185,27009.56000000003,3-16-3-2
65,3,16,3,3,32,0.402619871478003,-0.3456990119701219,2.2,16007.170000000002,3-16-3-3
66,3,16,4,1,185,0.5410281759762728,-0.2774108587028485,3.5121951219512195,36742.09000000003,3-16-4-1
67,3,16,4,2,130,0.5205140879881365,-0.26493529015744555,3.3333333333333335,28962.23999999997,3-16-4-2
68,3,16,4,3,40,0.43722194760257044,-0.2949414103414373,2.3333333333333335,16416.430000000008,3-16-4-3
69,3,16,5,1,170,0.5375679683638162,-0.31048773478345454,3.358974358974359,34067.90999999999,3-16-5-1
70,3,16,5,2,124,0.4893722194760257,-0.3880515403297111,3.1333333333333333,21279.719999999954,3-16-5-2
71,3,16,5,3,43,0.3573900148294612,-0.4101998100158139,3.3,13347.160000000007,3-16-5-3
72,3,18,3,1,194,0.5308947108255067,-0.34226960880489615,3.217391304347826,32009.849999999988,3-18-3-1
73,3,18,3,2,103,0.47750865051903113,-0.22480531271843626,3.4782608695652173,20996.160000000003,3-18-3-2
74,3,18,3,3,32,0.3719723183391003,-0.346051988130564,3.5714285714285716,18048.629999999983,3-18-3-3
75,3,18,4,1,178,0.5388037567968363,-0.26060698104133445,3.9444444444444446,39323.95,3-18-4-1
76,3,18,4,2,122,0.5210084033613446,-0.29982327630365707,3.206896551724138,25566.639999999978,3-18-4-2
77,3,18,4,3,42,0.4241225902125556,-0.2918978843581231,2.0,15145.23,3-18-4-3
78,3,18,5,1,159,0.5341077607513594,-0.35347439710375717,3.2972972972972974,28541.25000000002,3-18-5-1
79,3,18,5,2,119,0.48467622343054867,-0.42515862040478447,3.25,17995.77999999998,3-18-5-2
80,3,18,5,3,47,0.3638161146811666,-0.40999283632030764,2.9166666666666665,12877.240000000007,3-18-5-3
81,3,20,3,1,184,0.5254572417202175,-0.3536344965615606,3.380952380952381,33164.830000000016,3-20-3-1
82,3,20,3,2,97,0.4236282748393475,-0.2300260972118894,3.217391304347826,17327.61,3-20-3-2
83,3,20,3,3,31,0.2884330202669303,-0.34559627550027877,2.4444444444444446,13757.56999999999,3-20-3-3
84,3,20,4,1,167,0.5294117647058824,-0.2598577748192379,3.7714285714285714,39860.52000000002,3-20-4-1
85,3,20,4,2,119,0.5012357884330203,-0.29987951661860496,3.4074074074074074,25995.009999999973,3-20-4-2
86,3,20,4,3,43,0.4117647058823529,-0.2696227342656008,2.0714285714285716,14901.93000000001,3-20-4-3
87,3,20,5,1,154,0.5296589223924864,-0.37163421320026935,3.5294117647058822,26195.62000000004,3-20-5-1
88,3,20,5,2,115,0.4812160158180919,-0.41006731959340853,2.9655172413793105,16732.059999999976,3-20-5-2
89,3,20,5,3,46,0.3897676717745922,-0.37936435507756655,3.1818181818181817,16323.520000000002,3-20-5-3
90,3,22,3,1,183,0.5170538803756797,-0.34230892787029554,3.255813953488372,39413.91000000002,3-22-3-1
91,3,22,3,2,97,0.4295600593178448,-0.2190638248362021,3.85,20085.29,3-22-3-2
92,3,22,3,3,28,0.25160652496292635,-0.34559627550027877,2.5,12731.339999999984,3-22-3-3
93,3,22,4,1,165,0.5140879881364311,-0.26014482830306024,3.8529411764705883,43860.97000000004,3-22-4-1
94,3,22,4,2,114,0.481463173504696,-0.32240147057043417,3.2222222222222223,26607.219999999983,3-22-4-2
95,3,22,4,3,41,0.39050914483440435,-0.2700507896235456,1.9285714285714286,14249.790000000005,3-22-4-3
96,3,22,5,1,153,0.5121107266435986,-0.3674915834357254,3.78125,31855.74,3-22-5-1
97,3,22,5,2,114,0.47800296589223923,-0.41006731959340853,2.9310344827586206,19922.269999999986,3-22-5-2
98,3,22,5,3,47,0.3766683143845774,-0.3572557589239058,2.357142857142857,16116.000000000013,3-22-5-3
99,3,24,3,1,174,0.5101334651507662,-0.34240340093471183,3.4615384615384617,33778.379999999976,3-24-3-1
100,3,24,3,2,95,0.4226396440929313,-0.22006817612954924,3.75,21580.610000000008,3-24-3-2
101,3,24,3,3,34,0.2706376668314385,-0.34559627550027877,3.25,14344.889999999992,3-24-3-3
102,3,24,4,1,158,0.5111220958971824,-0.2421765375003112,3.5142857142857142,42592.35999999999,3-24-4-1
103,3,24,4,2,105,0.4693524468610974,-0.2921219031643738,3.0384615384615383,23575.19999999998,3-24-4-2
104,3,24,4,3,37,0.3430548690064261,-0.2712561085437003,2.3636363636363638,14168.05,3-24-4-3
0,3,24,5,1,148,0.5059317844784973,-0.32984873949579824,3.2285714285714286,32085.359999999997,3-24-5-1
1,3,24,5,2,108,0.4661393969352447,-0.3980335779563039,3.0,19148.779999999977,3-24-5-2
2,3,24,5,3,47,0.393475037073653,-0.34992799034681404,2.6153846153846154,17042.34000000001,3-24-5-3
3,4,6,3,1,331,0.5783489866534849,-0.2771938356586463,2.0934579439252334,38595.97000000002,4-6-3-1
4,4,6,3,2,162,0.5620365793376174,-0.25687300712630884,3.3783783783783785,38964.76,4-6-3-2
5,4,6,3,3,30,0.44809688581314877,-0.16605704295663284,2.75,22839.710000000003,4-6-3-3
6,4,6,4,1,306,0.578843302026693,-0.2742154066953456,2.558139534883721,35292.900000000016,4-6-4-1
7,4,6,4,2,164,0.5541275333662877,-0.24789839995721671,3.2051282051282053,43199.97999999998,4-6-4-2
8,4,6,4,3,32,0.4990113692535838,-0.1887000143577519,4.333333333333333,37707.17000000001,4-6-4-3
9,4,6,5,1,274,0.5781018289668809,-0.26949924395687735,2.7534246575342465,35138.87000000002,4-6-5-1
10,4,6,5,2,167,0.565002471576866,-0.3123836171086428,2.883720930232558,28502.460000000017,4-6-5-2
11,4,6,5,3,44,0.6238260009886307,-0.3355908730091707,3.0,26729.910000000025,4-6-5-3
12,4,7,3,1,310,0.5803262481463174,-0.2829139241134865,2.4444444444444446,41536.24,4-7-3-1
13,4,7,3,2,179,0.5439940682155215,-0.23566692501011538,3.0681818181818183,40827.669999999984,4-7-3-2
14,4,7,3,3,34,0.560059317844785,-0.31644433652003623,5.8,45550.63999999999,4-7-3-3
15,4,7,4,1,288,0.5684626791893228,-0.26368646731052914,2.891891891891892,38826.49999999998,4-7-4-1
16,4,7,4,2,184,0.5610479485912012,-0.2175362060297435,3.088888888888889,41946.51000000001,4-7-4-2
17,4,7,4,3,43,0.5531389026198715,-0.34829002119043645,2.909090909090909,25859.210000000017,4-7-4-3
18,4,7,5,1,262,0.5783489866534849,-0.2727482093381939,2.7971014492753623,39414.56,4-7-5-1
19,4,7,5,2,182,0.5635195254572417,-0.28497794250291114,2.7142857142857144,36039.409999999996,4-7-5-2
20,4,7,5,3,48,0.48467622343054867,-0.30578762606352516,2.4285714285714284,22115.13,4-7-5-3
21,4,8,3,1,284,0.5687098368759268,-0.26410199315004856,2.688311688311688,41511.9,4-8-3-1
22,4,8,3,2,167,0.5452298566485417,-0.3345742409564839,3.175,30340.439999999995,4-8-3-2
23,4,8,3,3,43,0.43351458230350964,-0.33370017860839557,2.3076923076923075,18526.349999999995,4-8-3-3
24,4,8,4,1,266,0.578843302026693,-0.26689926926337126,2.643835616438356,36695.05000000004,4-8-4-1
25,4,8,4,2,177,0.5761245674740484,-0.2869557780664161,2.765957446808511,32106.39999999996,4-8-4-2
26,4,8,4,3,45,0.48690064260998517,-0.3169335973938372,2.0,20127.950000000004,4-8-4-3
27,4,8,5,1,244,0.5719228868017795,-0.2673486070479234,2.6417910447761193,42057.97999999999,4-8-5-1
28,4,8,5,2,181,0.5805734058329214,-0.247167971694794,2.851063829787234,35784.78000000002,4-8-5-2
29,4,8,5,3,47,0.40212555610479483,-0.2581353692962122,4.222222222222222,21535.339999999993,4-8-5-3
30,4,9,3,1,270,0.5640138408304498,-0.24966087199229886,2.6986301369863015,41263.619999999995,4-9-3-1
31,4,9,3,2,167,0.48863074641621357,-0.32315370675607735,3.073170731707317,31256.629999999997,4-9-3-2
32,4,9,3,3,46,0.47429560059317843,-0.3709406674585764,2.066666666666667,18768.550000000003,4-9-3-3
33,4,9,4,1,251,0.574147305981216,-0.2698673909829766,2.6911764705882355,39294.32000000002,4-9-4-1
34,4,9,4,2,166,0.5427582797825012,-0.251938056884946,3.15,40091.749999999985,4-9-4-2
35,4,9,4,3,41,0.4505684626791893,-0.35651619444422444,4.125,21771.69999999999,4-9-4-3
36,4,9,5,1,224,0.5662382600098863,-0.2689381897923388,2.5555555555555554,47424.80000000005,4-9-5-1
37,4,9,5,2,165,0.5519031141868512,-0.2622507367112834,2.9285714285714284,30138.770000000004,4-9-5-2
38,4,9,5,3,48,0.42239248640632726,-0.2841588484680922,3.3636363636363638,20736.615100000006,4-9-5-3
39,4,10,3,1,254,0.5625308947108255,-0.24186877086593883,2.8484848484848486,40598.340000000026,4-10-3-1
40,4,10,3,2,159,0.4624320316361839,-0.22005324887784694,3.1842105263157894,36349.08000000001,4-10-3-2
41,4,10,3,3,46,0.34478497281265447,-0.32790039819722583,2.2857142857142856,15588.330000000005,4-10-3-3
42,4,10,4,1,236,0.5657439446366782,-0.2504853515985029,2.806451612903226,42463.669999999984,4-10-4-1
43,4,10,4,2,161,0.5311418685121108,-0.2197421316333323,3.128205128205128,43756.82789999999,4-10-4-2
44,4,10,4,3,48,0.38556599110232326,-0.32416914495054944,3.0,17812.7,4-10-4-3
45,4,10,5,1,215,0.5622837370242214,-0.28266321218574375,2.5833333333333335,41302.850000000035,4-10-5-1
46,4,10,5,2,156,0.5489372219476025,-0.32688552343104477,3.2162162162162162,24601.590000000004,4-10-5-2
47,4,10,5,3,49,0.3739495798319328,-0.28850808492623736,3.4545454545454546,18590.209999999985,4-10-5-3
48,4,12,3,1,222,0.5585763717251606,-0.2685809738605311,3.111111111111111,38193.26,4-12-3-1
49,4,12,3,2,149,0.49332674246169056,-0.31812252872189123,3.138888888888889,27322.830000000013,4-12-3-2
50,4,12,3,3,45,0.31290163124073156,-0.37526044721891044,2.75,15244.939999999993,4-12-3-3
51,4,12,4,1,205,0.5622837370242214,-0.2737472166613577,3.019607843137255,38675.64970000002,4-12-4-1
52,4,12,4,2,143,0.5182896688087,-0.31965993237237567,2.9722222222222223,25913.87,4-12-4-2
53,4,12,4,3,49,0.30103806228373703,-0.4181968404751479,2.769230769230769,10931.639999999998,4-12-4-3
54,4,12,5,1,194,0.5595650024715768,-0.28547956027020893,2.730769230769231,36008.900000000016,4-12-5-1
55,4,12,5,2,142,0.5195254572417202,-0.3416002191222738,2.55,23352.120000000017,4-12-5-2
56,4,12,5,3,56,0.3774097874443895,-0.2701121643876021,3.3076923076923075,20808.73999999999,4-12-5-3
57,4,14,3,1,204,0.5447355412753336,-0.26900431386265616,3.163265306122449,38857.740000000034,4-14-3-1
58,4,14,3,2,132,0.4844290657439446,-0.32619475006003784,3.125,24202.689999999995,4-14-3-2
59,4,14,3,3,38,0.3346515076618883,-0.3656475842356699,2.4545454545454546,14019.829999999987,4-14-3-3
60,4,14,4,1,194,0.546465645081562,-0.2737515101637975,3.127659574468085,42546.28840000003,4-14-4-1
61,4,14,4,2,139,0.5106277805239743,-0.3093029044148348,3.34375,24826.429999999975,4-14-4-2
62,4,14,4,3,57,0.4130004943153732,-0.3609637528316111,2.8,11615.690000000004,4-14-4-3
63,4,14,5,1,181,0.5504201680672269,-0.3365673469022529,2.851063829787234,30424.90000000003,4-14-5-1
64,4,14,5,2,134,0.5074147305981216,-0.35978583118695007,2.8285714285714287,20546.639999999985,4-14-5-2
65,4,14,5,3,58,0.3966880869995057,-0.2795003666145572,4.2727272727272725,22106.32999999999,4-14-5-3
66,4,16,3,1,188,0.5402867029164607,-0.2697520523970771,3.8205128205128207,41904.310000000005,4-16-3-1
67,4,16,3,2,127,0.5071675729115176,-0.34442868562447104,2.96875,24929.280000000017,4-16-3-2
68,4,16,3,3,34,0.34157192288680177,-0.3581759427460362,3.25,15513.050000000001,4-16-3-3
69,4,16,4,1,176,0.5489372219476025,-0.31938990719993365,3.1904761904761907,33954.93000000003,4-16-4-1
70,4,16,4,2,128,0.5019772614928324,-0.3491712386426309,3.740740740740741,22255.109999999997,4-16-4-2
71,4,16,4,3,57,0.3413247652001977,-0.39040668431092773,2.8,12500.950000000008,4-16-4-3
72,4,16,5,1,169,0.5469599604547701,-0.33188000438740806,3.225,30060.860000000008,4-16-5-1
73,4,16,5,2,123,0.5009886307464162,-0.35827783180311606,3.1,19482.609999999993,4-16-5-2
74,4,16,5,3,55,0.3633217993079585,-0.2736425442184291,4.5,20364.680000000015,4-16-5-3
75,4,18,3,1,182,0.5353435491843797,-0.2413405525207532,4.2,45942.16999999999,4-18-3-1
76,4,18,3,2,121,0.48591201186356897,-0.3350004341261968,3.1724137931034484,24701.420000000013,4-18-3-2
77,4,18,3,3,36,0.3047454275827978,-0.3106350682876881,3.5,13606.169999999995,4-18-3-3
78,4,18,4,1,170,0.5425111220958971,-0.31178061864334433,3.473684210526316,34379.64,4-18-4-1
79,4,18,4,2,125,0.48640632723677707,-0.35055874899190337,3.1666666666666665,19525.99999999998,4-18-4-2
80,4,18,4,3,52,0.3606030647553139,-0.39052982706719325,2.7142857142857144,12246.550000000005,4-18-4-3
81,4,18,5,1,153,0.542016806722689,-0.34733592436395655,3.6363636363636362,25435.070000000007,4-18-5-1
82,4,18,5,2,117,0.5081562036579338,-0.41927246339389457,3.3333333333333335,16234.60999999998,4-18-5-2
83,4,18,5,3,59,0.39273356401384085,-0.2993567190401175,2.6875,17830.540000000005,4-18-5-3
84,4,20,3,1,171,0.5205140879881365,-0.2415557855661244,4.029411764705882,40199.640000000036,4-20-3-1
85,4,20,3,2,115,0.46416213544241225,-0.3229075910527255,2.59375,20301.919999999987,4-20-3-2
86,4,20,3,3,34,0.27483934750370737,-0.32516282672940655,2.7777777777777777,11337.790000000006,4-20-3-3
87,4,20,4,1,162,0.532377656945131,-0.2643065164747818,4.225806451612903,33112.66000000001,4-20-4-1
88,4,20,4,2,120,0.47800296589223923,-0.36513102736633923,3.1379310344827585,19573.34999999999,4-20-4-2
89,4,20,4,3,50,0.3299555116164113,-0.34133937735361874,2.8461538461538463,12029.260000000006,4-20-4-3
90,4,20,5,1,149,0.5271873455264459,-0.3501893559659813,3.138888888888889,25706.72999999999,4-20-5-1
91,4,20,5,2,115,0.49975284231339595,-0.3785910375306604,2.9655172413793105,18480.99999999998,4-20-5-2
92,4,20,5,3,57,0.384330202669303,-0.2993567190401175,2.1666666666666665,17550.980000000003,4-20-5-3
93,4,22,3,1,172,0.5170538803756797,-0.24192047012992188,3.7777777777777777,43527.58000000001,4-22-3-1
94,4,22,3,2,111,0.4671280276816609,-0.36041991302267207,2.5806451612903225,20698.759999999995,4-22-3-2
95,4,22,3,3,33,0.29683638161146814,-0.2745775339496766,3.125,13942.189999999995,4-22-3-3
96,4,22,4,1,155,0.5281759762728621,-0.3356200824404522,4.0,31854.520000000008,4-22-4-1
97,4,22,4,2,116,0.4656450815620366,-0.38072599856011013,3.142857142857143,20052.60999999998,4-22-4-2
98,4,22,4,3,50,0.29930795847750863,-0.3416776792359046,3.1666666666666665,14779.960000000005,4-22-4-3
99,4,22,5,1,145,0.5215027187345527,-0.3507224980447409,3.53125,29400.010000000028,4-22-5-1
100,4,22,5,2,114,0.4809688581314879,-0.3835597610711667,3.3846153846153846,20833.104999999985,4-22-5-2
101,4,22,5,3,58,0.36035590706870985,-0.29979298336765664,2.625,21781.229999999996,4-22-5-3
102,4,24,3,1,167,0.5163124073158675,-0.24210986519855865,3.638888888888889,46473.62000000003,4-24-3-1
103,4,24,3,2,112,0.45452298566485416,-0.3383123047712377,3.48,23394.169999999995,4-24-3-2
104,4,24,3,3,33,0.2659416707859614,-0.2745775339496766,3.125,14454.279999999999,4-24-3-3
0,4,24,4,1,155,0.5039545229856649,-0.33621309228963897,3.5588235294117645,32112.95999999999,4-24-4-1
1,4,24,4,2,113,0.44191794364804743,-0.36578081871243645,3.0357142857142856,22603.329999999998,4-24-4-2
2,4,24,4,3,50,0.31735046959960456,-0.3345293057284557,2.5714285714285716,14996.020000000002,4-24-4-3
3,4,24,5,1,140,0.5103806228373703,-0.3406558368042935,3.1176470588235294,32256.16000000002,4-24-5-1
4,4,24,5,2,112,0.4671280276816609,-0.3442391056766537,3.48,27250.385000000002,4-24-5-2
5,4,24,5,3,56,0.3341571922886802,-0.30214299510280856,3.0,21862.420000000006,4-24-5-3
6,5,6,3,1,301,0.6040533860603065,-0.36822545208720686,2.6265060240963853,36865.23,5-6-3-1
7,5,6,3,2,132,0.6043005437469106,-0.3135473751356284,2.142857142857143,21669.679999999993,5-6-3-2
8,5,6,3,3,36,0.4957983193277311,-0.3159202020634441,2.6,19437.50000000001,5-6-3-3
9,5,6,4,1,284,0.5865051903114187,-0.322272332902254,2.4634146341463414,36373.74999999998,5-6-4-1
10,5,6,4,2,150,0.5988630746416214,-0.35107622249874243,2.1914893617021276,21124.54,5-6-4-2
11,5,6,4,3,42,0.4920909540286703,-0.4166360786212561,1.8,15693.709999999995,5-6-4-3
12,5,6,5,1,265,0.5758774097874444,-0.3344466073391339,2.533333333333333,32472.38999999998,5-6-5-1
13,5,6,5,2,149,0.5489372219476025,-0.28926571560388264,2.239130434782609,18865.510000000024,5-6-5-2
14,5,6,5,3,43,0.42288680177953536,-0.2287736568687196,2.5833333333333335,21636.260000000002,5-6-5-3
15,5,7,3,1,294,0.5800790904597133,-0.29985671706079536,2.303370786516854,39804.050000000025,5-7-3-1
16,5,7,3,2,155,0.5608007909045971,-0.18334529474765102,2.4444444444444446,35547.23000000001,5-7-3-2
17,5,7,3,3,48,0.5,-0.34789521468588747,2.0,17459.49000000001,5-7-3-3
18,5,7,4,1,284,0.5874938210578349,-0.30523911870957915,2.5949367088607596,36954.069999999985,5-7-4-1
19,5,7,4,2,178,0.5410281759762728,-0.27132564192550906,2.358490566037736,25266.632800000018,5-7-4-2
20,5,7,4,3,49,0.4080573405832921,-0.2981778826866202,2.2666666666666666,15101.25,5-7-4-3
21,5,7,5,1,256,0.5795847750865052,-0.3399785864896396,2.506849315068493,36721.74000000003,5-7-5-1
22,5,7,5,2,182,0.5768660405338606,-0.28628846248617484,2.309090909090909,30615.130000000034,5-7-5-2
23,5,7,5,3,52,0.4547701433514582,-0.28450135121089287,4.777777777777778,24730.22000000001,5-7-5-3
24,5,8,3,1,274,0.5872466633712309,-0.26368985060259925,2.4683544303797467,36235.890000000014,5-8-3-1
25,5,8,3,2,174,0.5716757291151755,-0.29508229433068744,2.3461538461538463,24731.94000000001,5-8-3-2
26,5,8,3,3,50,0.4510627780523974,-0.43033484498418,2.5714285714285716,13283.410000000009,5-8-3-3
27,5,8,4,1,258,0.5790904597132971,-0.291205667047668,2.5833333333333335,34878.59000000002,5-8-4-1
28,5,8,4,2,184,0.5575877409787444,-0.27438185687141203,2.066666666666667,24158.280000000024,5-8-4-2
29,5,8,4,3,56,0.50914483440435,-0.3264205624606526,2.5,20108.239999999998,5-8-4-3
30,5,8,5,1,238,0.5763717251606525,-0.3535253350936302,2.7777777777777777,36304.290000000045,5-8-5-1
31,5,8,5,2,186,0.560059317844785,-0.2785973954118223,2.206896551724138,28033.58000000004,5-8-5-2
32,5,8,5,3,65,0.5232328225407811,-0.4046462499158557,1.7083333333333333,16515.610000000015,5-8-5-3
33,5,9,3,1,259,0.5753830944142363,-0.2808473478404369,2.7,48973.560000000005,5-9-3-1
34,5,9,3,2,167,0.5477014335145823,-0.18402016007070082,2.4791666666666665,28230.780000000006,5-9-3-2
35,5,9,3,3,49,0.4189322787938705,-0.2711592416349651,2.769230769230769,19588.729999999996,5-9-3-3
36,5,9,4,1,240,0.5803262481463174,-0.33287054456663784,2.5294117647058822,35871.62000000004,5-9-4-1
37,5,9,4,2,182,0.5563519525457242,-0.25522208496449517,2.309090909090909,26819.81290000004,5-9-4-2
38,5,9,4,3,63,0.47750865051903113,-0.32111746317067913,2.9375,25668.089999999997,5-9-4-3
39,5,9,5,1,228,0.5751359367276322,-0.27686857522277974,2.5076923076923077,38625.28000000001,5-9-5-1
40,5,9,5,2,183,0.5538803756796836,-0.3899219349196374,2.388888888888889,27744.742500000022,5-9-5-2
41,5,9,5,3,69,0.48467622343054867,-0.31618963130896227,2.45,19932.149999999976,5-9-5-3
42,5,10,3,1,237,0.5699456253089471,-0.26572681689080774,2.537313432835821,42353.28999999997,5-10-3-1
43,5,10,3,2,164,0.5281759762728621,-0.23663439223321298,2.6444444444444444,30634.09999999998,5-10-3-2
44,5,10,3,3,52,0.4122590212555611,-0.28451826651394296,3.727272727272727,23840.009999999995,5-10-3-3
45,5,10,4,1,224,0.5687098368759268,-0.2795947370972824,2.5555555555555554,35511.40000000006,5-10-4-1
46,5,10,4,2,165,0.5346020761245674,-0.33866044074689117,2.4375,24079.67320000002,5-10-4-2
47,5,10,4,3,66,0.47800296589223923,-0.2541972593525046,2.473684210526316,20046.13999999999,5-10-4-3
48,5,10,5,1,213,0.5654967869500741,-0.3113500029888409,2.736842105263158,38818.070000000036,5-10-5-1
49,5,10,5,2,174,0.5514087988136431,-0.3839515563303874,2.2830188679245285,26471.49230000002,5-10-5-2
50,5,10,5,3,78,0.4493326742461691,-0.3342486838192854,2.5454545454545454,22197.920000000013,5-10-5-3
51,5,12,3,1,204,0.5617894216510133,-0.21339411005441164,2.7777777777777777,46562.06000000004,5-12-3-1
52,5,12,3,2,144,0.4967869500741473,-0.2642735699603768,2.4285714285714284,29679.70000000001,5-12-3-2
53,5,12,3,3,59,0.43351458230350964,-0.30433254931575415,3.2142857142857144,18383.43,5-12-3-3
54,5,12,4,1,196,0.5580820563519525,-0.2797636835575136,3.260869565217391,44584.060000000056,5-12-4-1
55,5,12,4,2,158,0.5405338606030647,-0.2981104587521145,2.6744186046511627,28384.900000000016,5-12-4-2
56,5,12,4,3,74,0.4374691052891745,-0.2337375140055442,4.6923076923076925,33599.44999999999,5-12-4-3
57,5,12,5,1,187,0.5570934256055363,-0.2386531278123185,3.0652173913043477,36480.92000000002,5-12-5-1
58,5,12,5,2,157,0.5447355412753336,-0.3312428531496963,2.488888888888889,25130.23000000003,5-12-5-2
59,5,12,5,3,73,0.4495798319327731,-0.2893796631260374,2.4761904761904763,23008.029999999995,5-12-5-3
60,5,14,3,1,189,0.5570934256055363,-0.2133853273472415,3.2954545454545454,47958.69000000002,5-14-3-1
61,5,14,3,2,134,0.4822046465645082,-0.1940031495032129,2.6216216216216215,28009.140000000007,5-14-3-2
62,5,14,3,3,53,0.3774097874443895,-0.3114219015280133,3.4166666666666665,22316.810000000005,5-14-3-3
63,5,14,4,1,180,0.5578348986653485,-0.27366847470918815,3.3902439024390243,36199.51000000003,5-14-4-1
64,5,14,4,2,143,0.5207612456747405,-0.276921404625815,2.763157894736842,22109.18,5-14-4-2
65,5,14,4,3,66,0.4322787938704894,-0.19669635278425227,3.7142857142857144,31234.54999999998,5-14-4-3
66,5,14,5,1,169,0.5390509144834404,-0.2654263412024835,3.0238095238095237,28583.09000000004,5-14-5-1
67,5,14,5,2,148,0.5170538803756797,-0.3389484434956648,3.111111111111111,25012.304999999982,5-14-5-2
68,5,14,5,3,75,0.38902619871478,-0.21761697787467782,2.9473684210526314,25798.510000000013,5-14-5-3
69,5,16,3,1,177,0.5491843796342066,-0.2099385711013476,3.2142857142857144,43463.82000000002,5-16-3-1
70,5,16,3,2,132,0.4681166584280771,-0.18906501151090033,3.4,29715.289999999968,5-16-3-2
71,5,16,3,3,55,0.3524468610973801,-0.2695787547985674,4.0,20087.389999999996,5-16-3-3
72,5,16,4,1,169,0.5457241720217498,-0.2581927226931921,3.225,33342.940000000046,5-16-4-1
73,5,16,4,2,142,0.5158180919426594,-0.3109376914896559,3.176470588235294,25926.52,5-16-4-2
74,5,16,4,3,64,0.38185862580326246,-0.223622016878754,3.2666666666666666,25369.829999999998,5-16-4-3
75,5,16,5,1,155,0.5447355412753336,-0.2686362716288933,3.3055555555555554,24679.54,5-16-5-1
76,5,16,5,2,134,0.5098863074641621,-0.33154922032015427,3.1875,22075.765000000018,5-16-5-2
77,5,16,5,3,67,0.42016806722689076,-0.27078275197125407,3.1875,20648.289999999986,5-16-5-3
78,5,18,3,1,166,0.5469599604547701,-0.19939461550405405,3.3684210526315788,40504.58000000001,5-18-3-1
79,5,18,3,2,127,0.48418190805734057,-0.2663601603288828,3.3793103448275863,22675.570000000007,5-18-3-2
80,5,18,3,3,53,0.3482451804251112,-0.22933862901769853,3.4166666666666665,20384.11,5-18-3-3
81,5,18,4,1,153,0.5439940682155215,-0.29481800337419944,3.78125,29010.730000000003,5-18-4-1
82,5,18,4,2,133,0.5261987147800297,-0.3595998043533079,3.0303030303030303,21562.990000000005,5-18-4-2
83,5,18,4,3,63,0.36950074147305983,-0.31686628499174546,3.2,21047.90000000001,5-18-4-3
84,5,18,5,1,148,0.5338606030647554,-0.29564946107637824,3.2285714285714286,24442.149999999994,5-18-5-1
85,5,18,5,2,126,0.50914483440435,-0.37449590280239703,3.3448275862068964,20435.25499999999,5-18-5-2
86,5,18,5,3,66,0.43771626297577854,-0.3238663881278868,2.473684210526316,17271.079999999998,5-18-5-3
87,5,20,3,1,158,0.5415224913494809,-0.21629553563599807,4.266666666666667,39136.56000000001,5-20-3-1
88,5,20,3,2,119,0.4698467622343055,-0.2663601603288828,3.4074074074074074,25071.400000000016,5-20-3-2
89,5,20,3,3,55,0.3393475037073653,-0.22957231605851522,4.0,22052.499999999996,5-20-3-3
90,5,20,4,1,149,0.5239742956005932,-0.30871259830292613,3.515151515151515,28178.68000000002,5-20-4-1
91,5,20,4,2,125,0.5098863074641621,-0.36053376946289334,3.6296296296296298,24098.690000000013,5-20-4-2
92,5,20,4,3,58,0.38408304498269896,-0.35367544427522046,2.8666666666666667,20098.010000000002,5-20-4-3
93,5,20,5,1,142,0.5316361838853189,-0.2917687088708193,3.303030303030303,28004.350000000006,5-20-5-1
94,5,20,5,2,124,0.5069204152249135,-0.34332681858207487,3.769230769230769,22324.864999999976,5-20-5-2
95,5,20,5,3,70,0.42288680177953536,-0.37397962377752214,2.888888888888889,16889.359999999986,5-20-5-3
96,5,22,3,1,158,0.5333662876915473,-0.22296975204910982,4.096774193548387,35455.29,5-22-3-1
97,5,22,3,2,119,0.47800296589223923,-0.2988560322561394,2.966666666666667,21932.54999999999,5-22-3-2
98,5,22,3,3,52,0.3482451804251112,-0.16301522087985815,3.727272727272727,22273.8,5-22-3-3
99,5,22,4,1,149,0.5192782995551162,-0.3071060668294751,3.515151515151515,31602.6,5-22-4-1
100,5,22,4,2,124,0.49011369253583786,-0.3628302837734195,3.4285714285714284,24455.859999999982,5-22-4-2
101,5,22,4,3,56,0.32847256549678694,-0.31157532100303625,3.3076923076923075,19884.05000000001,5-22-4-3
102,5,22,5,1,138,0.5158180919426594,-0.3167094470919093,3.0588235294117645,28478.139999999978,5-22-5-1
103,5,22,5,2,121,0.49703410776075135,-0.35405383010968633,3.6538461538461537,21143.595000000038,5-22-5-2
104,5,22,5,3,69,0.4176964903608502,-0.42072214064401703,3.0588235294117645,14912.880000000005,5-22-5-3
0,5,24,3,1,152,0.5158180919426594,-0.1791883049439135,3.75,42138.10000000004,5-24-3-1
1,5,24,3,2,113,0.47108255066732574,-0.2641513461502148,3.7083333333333335,27952.699999999983,5-24-3-2
2,5,24,3,3,52,0.3499752842313396,-0.23347877826259414,4.777777777777778,24618.410000000007,5-24-3-3
3,5,24,4,1,141,0.5143351458230351,-0.33925155230308307,3.5483870967741935,34465.07000000001,5-24-4-1
4,5,24,4,2,115,0.48467622343054867,-0.387578551086631,3.107142857142857,23398.550000000025,5-24-4-2
5,5,24,4,3,56,0.3121601581809194,-0.31163225727352756,4.090909090909091,28214.989999999998,5-24-4-3
6,5,24,5,1,130,0.5101334651507662,-0.32750683508457357,3.4827586206896552,31191.43999999999,5-24-5-1
7,5,24,5,2,114,0.4834404349975284,-0.35230576371880185,3.9565217391304346,24738.230000000018,5-24-5-2
8,5,24,5,3,65,0.3848245180425111,-0.3238910419806069,3.0625,16872.05999999999,5-24-5-3
9,6,6,3,1,0,0.0,0.0,0.0,10000.0,6-6-3-1
10,6,6,3,2,0,0.0,0.0,0.0,10000.0,6-6-3-2
11,6,6,3,3,0,0.0,0.0,0.0,10000.0,6-6-3-3
12,6,6,4,1,0,0.0,0.0,0.0,10000.0,6-6-4-1
13,6,6,4,2,0,0.0,0.0,0.0,10000.0,6-6-4-2
14,6,6,4,3,0,0.0,0.0,0.0,10000.0,6-6-4-3
15,6,6,5,1,0,0.0,0.0,0.0,10000.0,6-6-5-1
16,6,6,5,2,0,0.0,0.0,0.0,10000.0,6-6-5-2
17,6,6,5,3,0,0.0,0.0,0.0,10000.0,6-6-5-3
18,6,7,3,1,282,0.5983687592684133,-0.25297042117584534,2.168539325842697,45426.289999999986,6-7-3-1
19,6,7,3,2,138,0.5862580326248147,-0.252050794052629,2.5384615384615383,23213.050000000025,6-7-3-2
20,6,7,3,3,35,0.47602570439940683,-0.3086131845153841,2.5,16729.559999999998,6-7-3-3
21,6,7,4,1,268,0.5862580326248147,-0.30745809131452795,2.392405063291139,41101.72000000004,6-7-4-1
22,6,7,4,2,161,0.5869995056846268,-0.3084925456333636,2.2857142857142856,32284.79000000001,6-7-4-2
23,6,7,4,3,47,0.5652496292634701,-0.28558678328210413,3.272727272727273,28302.969999999998,6-7-4-3
24,6,7,5,1,248,0.583292140385566,-0.30174529364097036,2.3513513513513513,34722.19000000003,6-7-5-1
25,6,7,5,2,173,0.574147305981216,-0.3032702030435219,2.0892857142857144,28438.99000000004,6-7-5-2
26,6,7,5,3,57,0.5395452298566485,-0.2544686542464966,3.0714285714285716,26708.439999999988,6-7-5-3
27,6,8,3,1,270,0.5946613939693525,-0.3171361267875278,2.13953488372093,39009.47999999995,6-8-3-1
28,6,8,3,2,165,0.5773603559070687,-0.2893150321758625,2.5106382978723403,33055.680000000015,6-8-3-2
29,6,8,3,3,52,0.5106277805239743,-0.2983786827283957,2.7142857142857144,26329.929999999997,6-8-3-3
30,6,8,4,1,253,0.5808205635195255,-0.3419797728731553,2.0853658536585367,30492.799999999992,6-8-4-1
31,6,8,4,2,166,0.5407810182896688,-0.2591009460037523,2.1320754716981134,31377.15000000001,6-8-4-2
32,6,8,4,3,56,0.46786950074147304,-0.22555191855925294,4.6,29649.172499999993,6-8-4-3
33,6,8,5,1,234,0.5795847750865052,-0.2619235431854802,2.2054794520547945,33152.020000000004,6-8-5-1
34,6,8,5,2,181,0.5615422639644093,-0.24476801659694641,2.62,45990.46000000004,6-8-5-2
35,6,8,5,3,68,0.5079090459713297,-0.2348593789714122,2.5789473684210527,30378.855900000002,6-8-5-3
36,6,9,3,1,250,0.5867523479980228,-0.317316352688497,2.3333333333333335,42058.25000000002,6-9-3-1
37,6,9,3,2,172,0.527681660899654,-0.1420698040049782,2.909090909090909,45487.939999999966,6-9-3-2
38,6,9,3,3,60,0.5652496292634701,-0.3047243912194135,3.6153846153846154,31662.391599999995,6-9-3-3
39,6,9,4,1,240,0.5743944636678201,-0.27120943948005805,2.287671232876712,32925.52000000004,6-9-4-1
40,6,9,4,2,182,0.5459713297083539,-0.26551861742503635,2.4339622641509435,39796.339999999975,6-9-4-2
41,6,9,4,3,62,0.4913494809688581,-0.2741080198571769,2.6470588235294117,22930.984200000006,6-9-4-3
42,6,9,5,1,219,0.5827978250123579,-0.2567399906244395,2.4761904761904763,34595.29000000001,6-9-5-1
43,6,9,5,2,186,0.5630252100840336,-0.27927375802352494,2.152542372881356,29645.326799999995,6-9-5-2
44,6,9,5,3,84,0.50914483440435,-0.2638125344169613,2.36,23930.52999999998,6-9-5-3
45,6,10,3,1,235,0.5711814137419674,-0.2981722364629273,2.5074626865671643,39287.55000000004,6-10-3-1
46,6,10,3,2,166,0.5227385071675729,-0.28544089097076863,2.608695652173913,28145.930000000008,6-10-3-2
47,6,10,3,3,64,0.43351458230350964,-0.3285677320855828,3.923076923076923,16721.440000000002,6-10-3-3
48,6,10,4,1,219,0.5758774097874444,-0.24457449516112018,2.4761904761904763,33197.96000000003,6-10-4-1
49,6,10,4,2,175,0.5580820563519525,-0.2888644193552961,2.4313725490196076,36270.21979999999,6-10-4-2
50,6,10,4,3,82,0.4186851211072664,-0.2321516755851187,3.5555555555555554,34880.509999999995,6-10-4-3
51,6,10,5,1,204,0.5687098368759268,-0.2764946248573419,2.4,27259.07239999998,6-10-5-1
52,6,10,5,2,178,0.5343549184379635,-0.27105524688681837,2.1785714285714284,30330.510000000002,6-10-5-2
53,6,10,5,3,94,0.4522985664854177,-0.29879804283983524,2.4814814814814814,29443.190000000006,6-10-5-3
54,6,12,3,1,203,0.569451309935739,-0.21368413489590193,3.06,38991.819500000056,6-12-3-1
55,6,12,3,2,148,0.52743450321305,-0.30378712582970596,2.7,26290.43499999999,6-12-3-2
56,6,12,3,3,72,0.4639149777558082,-0.27221463010512115,2.6,17502.90999999998,6-12-3-3
57,6,12,4,1,195,0.5662382600098863,-0.2976639969722255,2.4210526315789473,28320.461700000036,6-12-4-1
58,6,12,4,2,156,0.5271873455264459,-0.27129594343538804,2.0588235294117645,25570.795000000016,6-12-4-2
59,6,12,4,3,75,0.481463173504696,-0.25206346770685056,2.75,24383.259999999987,6-12-4-3
60,6,12,5,1,186,0.564755313890262,-0.22996154598735388,2.381818181818182,29211.341800000017,6-12-5-1
61,6,12,5,2,158,0.5526445872466633,-0.2765772234314902,2.4347826086956523,27023.48999999996,6-12-5-2
62,6,12,5,3,80,0.4337617399901137,-0.3108450436027233,2.4782608695652173,21389.52,6-12-5-3
63,6,14,3,1,180,0.5684626791893228,-0.2217385501556809,3.2857142857142856,38484.339600000014,6-14-3-1
64,6,14,3,2,139,0.5291646070192783,-0.3081242347563465,2.861111111111111,29413.08499999998,6-14-3-2
65,6,14,3,3,68,0.393475037073653,-0.17822117408485363,2.7777777777777777,18117.14,6-14-3-3
66,6,14,4,1,171,0.5536332179930796,-0.2566059924068466,2.9767441860465116,30313.891800000027,6-14-4-1
67,6,14,4,2,145,0.5294117647058824,-0.2510208457884478,2.918918918918919,30016.549999999977,6-14-4-2
68,6,14,4,3,77,0.4602076124567474,-0.23388375672310016,2.6666666666666665,22872.200000000004,6-14-4-3
69,6,14,5,1,167,0.5519031141868512,-0.2897831909727809,2.883720930232558,26556.352400000033,6-14-5-1
70,6,14,5,2,152,0.5286702916460702,-0.2642504335248238,2.619047619047619,30906.629999999994,6-14-5-2
71,6,14,5,3,81,0.44216510133465153,-0.27229104010676536,2.5217391304347827,16765.580000000005,6-14-5-3
72,6,16,3,1,170,0.5506673257538309,-0.22955361810485797,2.6956521739130435,34765.579999999994,6-16-3-1
73,6,16,3,2,127,0.5027187345526446,-0.30700540903212725,2.6285714285714286,21500.824999999997,6-16-3-2
74,6,16,3,3,63,0.3536826495304004,-0.20557831840747406,2.7058823529411766,17592.680000000008,6-16-3-3
75,6,16,4,1,160,0.5474542758279782,-0.27721193151692325,3.1025641025641026,26554.05,6-16-4-1
76,6,16,4,2,133,0.5232328225407811,-0.32747057980943883,3.0303030303030303,24303.22000000001,6-16-4-2
77,6,16,4,3,68,0.44982698961937717,-0.3520764818219201,2.5789473684210527,12721.690000000002,6-16-4-3
78,6,16,5,1,151,0.5400395452298566,-0.1886600445118753,2.682926829268293,25577.770000000004,6-16-5-1
79,6,16,5,2,133,0.5150766188828473,-0.2721085002527417,2.8,25925.979999999967,6-16-5-2
80,6,16,5,3,76,0.45773603559070686,-0.380708778173191,2.8,13197.259999999998,6-16-5-3
81,6,18,3,1,152,0.5501730103806228,-0.2548335347032328,2.8974358974358974,27938.769999999997,6-18-3-1
82,6,18,3,2,122,0.5153237765694513,-0.346409764636261,2.8125,20587.70499999999,6-18-3-2
83,6,18,3,3,59,0.3759268413247652,-0.20797317645738422,2.6875,14200.230000000007,6-18-3-3
84,6,18,4,1,147,0.5462184873949579,-0.24008523509344115,3.2,29081.860000000008,6-18-4-1
85,6,18,4,2,124,0.5294117647058824,-0.27880703356455033,3.4285714285714284,24944.740000000005,6-18-4-2
86,6,18,4,3,72,0.44092931290163123,-0.3181630542335089,2.789473684210526,15610.570000000003,6-18-4-3
87,6,18,5,1,143,0.5375679683638162,-0.272779406699501,2.9722222222222223,25382.180000000026,6-18-5-1
88,6,18,5,2,126,0.5145823035096392,-0.2824899013449151,3.2,25228.79999999998,6-18-5-2
89,6,18,5,3,80,0.4347503707365299,-0.3170593803289113,3.0,17290.880000000005,6-18-5-3
90,6,20,3,1,148,0.5407810182896688,-0.26496661395185384,3.625,31560.139999999978,6-20-3-1
91,6,20,3,2,119,0.504695996045477,-0.3444408721145371,3.103448275862069,20868.13000000001,6-20-3-2
92,6,20,3,3,59,0.36183885318833414,-0.3459491919950618,2.933333333333333,15338.510000000006,6-20-3-3
93,6,20,4,1,141,0.5380622837370242,-0.2439016052605277,3.272727272727273,29423.17000000003,6-20-4-1
94,6,20,4,2,122,0.5153237765694513,-0.24928129280599212,3.6923076923076925,27124.804999999975,6-20-4-2
95,6,20,4,3,64,0.41596638655462187,-0.3117749860580803,2.764705882352941,16055.150000000003,6-20-4-3
96,6,20,5,1,135,0.5313890261987148,-0.25873200733252855,2.9705882352941178,27849.610000000004,6-20-5-1
97,6,20,5,2,120,0.5123578843302027,-0.2808245973012193,3.2857142857142856,25449.73500000001,6-20-5-2
98,6,20,5,3,77,0.4172021749876421,-0.34245936929006326,3.8125,18449.360000000004,6-20-5-3
99,6,22,3,1,144,0.5338606030647554,-0.2861431145168519,3.8,33435.39,6-22-3-1
100,6,22,3,2,117,0.5032130499258527,-0.362229772623479,2.9,22334.635,6-22-3-2
101,6,22,3,3,54,0.384330202669303,-0.20151235915955573,2.375,14647.979999999996,6-22-3-3
102,6,22,4,1,137,0.5289174493326743,-0.26210290173815465,3.0294117647058822,28521.78000000003,6-22-4-1
103,6,22,4,2,116,0.4962926347009392,-0.2537462923685953,3.2962962962962963,22047.404999999995,6-22-4-2
104,6,22,4,3,63,0.38457736035590706,-0.3500323493103238,2.9375,14142.910000000022,6-22-4-3
0,6,22,5,1,133,0.5200197726149284,-0.25689447778910046,3.0303030303030303,27883.210000000017,6-22-5-1
1,6,22,5,2,116,0.4985170538803757,-0.2806407124636057,3.142857142857143,22547.53500000001,6-22-5-2
2,6,22,5,3,73,0.4107760751359367,-0.3506049296868647,3.0555555555555554,15971.730000000003,6-22-5-3
3,6,24,3,1,139,0.5264458724666337,-0.3208733258651519,3.4838709677419355,32077.14999999997,6-24-3-1
4,6,24,3,2,103,0.4725654967869501,-0.3267813312452198,2.9615384615384617,20282.51999999999,6-24-3-2
5,6,24,3,3,54,0.3556599110232328,-0.21707493654799848,2.857142857142857,16088.6,6-24-3-3
6,6,24,4,1,130,0.5217498764211567,-0.26697519736761116,3.3333333333333335,31177.56,6-24-4-1
7,6,24,4,2,109,0.47800296589223923,-0.25004203255972457,3.36,27415.98999999998,6-24-4-2
8,6,24,4,3,58,0.3628274839347504,-0.34691910301510587,2.411764705882353,14550.640000000009,6-24-4-3
9,6,24,5,1,125,0.5074147305981216,-0.2801110440942337,3.4642857142857144,31113.860000000004,6-24-5-1
10,6,24,5,2,110,0.4735541275333663,-0.28725335544758823,2.9285714285714284,25838.779999999988,6-24-5-2
11,6,24,5,3,71,0.3966880869995057,-0.3485184062881652,2.55,14466.269999999988,6-24-5-3
12,7,7,3,1,0,0.0,0.0,0.0,10000.0,7-7-3-1
13,7,7,3,2,0,0.0,0.0,0.0,10000.0,7-7-3-2
14,7,7,3,3,0,0.0,0.0,0.0,10000.0,7-7-3-3
15,7,7,4,1,0,0.0,0.0,0.0,10000.0,7-7-4-1
16,7,7,4,2,0,0.0,0.0,0.0,10000.0,7-7-4-2
17,7,7,4,3,0,0.0,0.0,0.0,10000.0,7-7-4-3
18,7,7,5,1,0,0.0,0.0,0.0,10000.0,7-7-5-1
19,7,7,5,2,0,0.0,0.0,0.0,10000.0,7-7-5-2
20,7,7,5,3,0,0.0,0.0,0.0,10000.0,7-7-5-3
21,7,8,3,1,253,0.5958971824023727,-0.23007391787779646,2.0853658536585367,39163.590000000026,7-8-3-1
22,7,8,3,2,136,0.629757785467128,-0.29272928940257464,3.533333333333333,43862.19999999999,7-8-3-2
23,7,8,3,3,38,0.5533860603064755,-0.22012551658612034,2.1666666666666665,17361.439999999995,7-8-3-3
24,7,8,4,1,243,0.5887296094908552,-0.23710877683373258,2.24,36870.920000000035,7-8-4-1
25,7,8,4,2,155,0.6082550667325753,-0.27332747535965685,2.7804878048780486,32076.26499999998,7-8-4-2
26,7,8,4,3,54,0.5620365793376174,-0.3525739619806363,3.5,21329.469999999998,7-8-4-3
27,7,8,5,1,223,0.5731586752347998,-0.19775341758885423,2.4307692307692306,37538.950000000004,7-8-5-1
28,7,8,5,2,166,0.574147305981216,-0.36299556564095176,2.1923076923076925,23549.065000000002,7-8-5-2
29,7,8,5,3,62,0.5667325753830944,-0.2825722914060687,2.875,25133.160000000003,7-8-5-3
30,7,9,3,1,241,0.5860108749382106,-0.2758164626718495,2.3472222222222223,33471.43999999998,7-9-3-1
31,7,9,3,2,155,0.5798319327731093,-0.3188515977129506,2.522727272727273,30908.379999999994,7-9-3-2
32,7,9,3,3,53,0.5491843796342066,-0.302262913098367,2.7857142857142856,23570.120000000003,7-9-3-3
33,7,9,4,1,231,0.592436974789916,-0.28214464926010513,2.3,32319.70999999999,7-9-4-1
34,7,9,4,2,169,0.5610479485912012,-0.2945145775349696,2.595744680851064,30616.986400000005,7-9-4-2
35,7,9,4,3,65,0.5541275333662877,-0.3455667552100323,1.826086956521739,19702.79,7-9-4-3
36,7,9,5,1,211,0.5818091942659417,-0.18789417164481162,2.459016393442623,31441.800000000003,7-9-5-1
37,7,9,5,2,182,0.5768660405338606,-0.26802302047763843,2.033333333333333,30641.8413,7-9-5-2
38,7,9,5,3,75,0.5390509144834404,-0.329483297131895,2.75,22601.469999999998,7-9-5-3
39,7,10,3,1,224,0.5766188828472566,-0.26940827706687964,2.111111111111111,35016.860000000015,7-10-3-1
40,7,10,3,2,161,0.5622837370242214,-0.33574268979346755,2.744186046511628,34728.930800000024,7-10-3-2
41,7,10,3,3,64,0.48788927335640137,-0.28530648163705336,2.5555555555555554,23805.359999999982,7-10-3-3
42,7,10,4,1,211,0.5842807711319822,-0.2609818282849311,2.459016393442623,31272.130000000005,7-10-4-1
43,7,10,4,2,172,0.569451309935739,-0.3249534005245533,2.3076923076923075,30119.247200000005,7-10-4-2
44,7,10,4,3,71,0.49703410776075135,-0.33668730001491776,2.736842105263158,23820.640000000007,7-10-4-3
45,7,10,5,1,199,0.5662382600098863,-0.20869960118570877,2.262295081967213,28836.791600000004,7-10-5-1
46,7,10,5,2,174,0.555610479485912,-0.2787880240669273,1.8064516129032258,23464.39500000002,7-10-5-2
47,7,10,5,3,82,0.48961937716262977,-0.3064421922780144,2.4166666666666665,19721.690000000013,7-10-5-3
48,7,12,3,1,192,0.5615422639644093,-0.2077432953107067,2.764705882352941,35723.290000000045,7-12-3-1
49,7,12,3,2,150,0.5259515570934256,-0.30782577604909384,2.1914893617021276,27537.424999999977,7-12-3-2
50,7,12,3,3,66,0.444636678200692,-0.24531354444419964,2.473684210526316,15101.53999999999,7-12-3-3
51,7,12,4,1,187,0.5677212061295106,-0.263817734091404,2.5283018867924527,30449.290000000034,7-12-4-1
52,7,12,4,2,158,0.5462184873949579,-0.32264685182223773,2.16,23850.47499999999,7-12-4-2
53,7,12,4,3,77,0.486159169550173,-0.33942311682921794,2.08,16911.340000000007,7-12-4-3
54,7,12,5,1,182,0.5672268907563025,-0.28174620715397775,2.5,31082.18000000004,7-12-5-1
55,7,12,5,2,161,0.5642609985170539,-0.40563981136365873,2.22,22242.96,7-12-5-2
56,7,12,5,3,93,0.4579831932773109,-0.23809638034013772,2.0,20288.480000000018,7-12-5-3
57,7,14,3,1,172,0.5608007909045971,-0.2738218208429397,2.510204081632653,28739.800000000014,7-14-3-1
58,7,14,3,2,140,0.5341077607513594,-0.28277036220758106,2.58974358974359,26892.665000000008,7-14-3-2
59,7,14,3,3,70,0.4666337123084528,-0.329743165627864,2.6842105263157894,16646.909999999993,7-14-3-3
60,7,14,4,1,168,0.5595650024715768,-0.2699980222603733,2.652173913043478,29577.720000000023,7-14-4-1
61,7,14,4,2,149,0.5598121601581809,-0.4285169146646894,2.5476190476190474,22942.529999999995,7-14-4-2
62,7,14,4,3,78,0.4458724666337123,-0.18287666864585148,3.1052631578947367,22265.17000000001,7-14-4-3
63,7,14,5,1,162,0.5563519525457242,-0.3031018706172802,2.306122448979592,24490.6,7-14-5-1
64,7,14,5,2,150,0.551161641127039,-0.37217290560436384,2.488372093023256,22170.290000000023,7-14-5-2
65,7,14,5,3,99,0.4757785467128028,-0.26819000554439454,2.0,18158.06000000001,7-14-5-3
66,7,16,3,1,158,0.5543746910528917,-0.19923191170073354,2.6744186046511627,28366.51000000001,7-16-3-1
67,7,16,3,2,124,0.5140879881364311,-0.3253568196856791,2.6470588235294117,22737.61499999999,7-16-3-2
68,7,16,3,3,62,0.4107760751359367,-0.31552338991578227,2.4444444444444446,13068.29,7-16-3-3
69,7,16,4,1,152,0.5494315373208106,-0.27768459961152964,2.8974358974358974,28183.64,7-16-4-1
70,7,16,4,2,137,0.5343549184379635,-0.3419687155131041,2.7027027027027026,24996.839999999967,7-16-4-2
71,7,16,4,3,81,0.4441423628274839,-0.32321215953503707,2.5217391304347827,19281.830000000005,7-16-4-3
72,7,16,5,1,144,0.5454770143351458,-0.2869696180358274,2.5121951219512195,26198.695,7-16-5-1
73,7,16,5,2,131,0.5333662876915473,-0.3267441132292144,2.638888888888889,23270.920000000002,7-16-5-2
74,7,16,5,3,91,0.48863074641621357,-0.35755201010468857,2.5,18323.955000000013,7-16-5-3
75,7,18,3,1,144,0.5528917449332674,-0.2688011426658015,3.235294117647059,27166.07999999998,7-18-3-1
76,7,18,3,2,118,0.5205140879881365,-0.3490198493700282,2.933333333333333,20438.16499999999,7-18-3-2
77,7,18,3,3,63,0.4337617399901137,-0.37394169651710113,2.3157894736842106,11292.909999999996,7-18-3-3
78,7,18,4,1,142,0.5489372219476025,-0.28940279375057393,2.8378378378378377,26192.169999999987,7-18-4-1
79,7,18,4,2,126,0.5358378645575878,-0.381741426075624,2.9375,22094.815000000002,7-18-4-2
80,7,18,4,3,75,0.4649036085022244,-0.3823209247226257,2.260869565217391,12011.460000000025,7-18-4-3
81,7,18,5,1,140,0.5407810182896688,-0.28656835905022565,3.1176470588235294,28055.174999999996,7-18-5-1
82,7,18,5,2,126,0.5299060800790905,-0.38237678080360943,2.9375,20913.465000000015,7-18-5-2
83,7,18,5,3,83,0.44315373208106773,-0.4064023717046084,2.608695652173913,17511.44000000001,7-18-5-3
84,7,20,3,1,138,0.5405338606030647,-0.2522873801107895,3.3125,28210.190000000013,7-20-3-1
85,7,20,3,2,111,0.4985170538803757,-0.3576315722663683,3.269230769230769,19293.89000000001,7-20-3-2
86,7,20,3,3,59,0.40434997528423133,-0.38171278473879483,2.6875,11678.260000000013,7-20-3-3
87,7,20,4,1,134,0.5284231339594662,-0.293132989718702,3.3225806451612905,26750.520000000022,7-20-4-1
88,7,20,4,2,120,0.5111220958971824,-0.3422793715761309,3.6153846153846154,24406.445000000003,7-20-4-2
89,7,20,4,3,72,0.43895205140879884,-0.40426856977798875,2.4285714285714284,12957.729999999992,7-20-4-3
90,7,20,5,1,134,0.527681660899654,-0.30123241443480997,3.6206896551724137,26860.184999999998,7-20-5-1
91,7,20,5,2,119,0.5128521997034108,-0.38905111208988785,3.25,21483.769999999993,7-20-5-2
92,7,20,5,3,78,0.44191794364804743,-0.42332057455807565,2.9,14968.910000000014,7-20-5-3
93,7,22,3,1,137,0.5388037567968363,-0.2710178059414003,3.7241379310344827,31304.230000000032,7-22-3-1
94,7,22,3,2,111,0.49604547701433516,-0.3617308206831503,2.9642857142857144,21232.704999999998,7-22-3-2
95,7,22,3,3,59,0.42338111715274346,-0.3864264186493413,2.4705882352941178,11385.520000000006,7-22-3-3
96,7,22,4,1,132,0.5261987147800297,-0.28295376242621056,3.4,26945.03000000001,7-22-4-1
97,7,22,4,2,117,0.5007414730598122,-0.3468884345134947,3.3333333333333335,23041.035,7-22-4-2
98,7,22,4,3,73,0.41596638655462187,-0.3876798984210504,2.65,12784.670000000007,7-22-4-3
99,7,22,5,1,126,0.5158180919426594,-0.3139293306131764,3.3448275862068964,24041.25000000001,7-22-5-1
100,7,22,5,2,111,0.5002471576866041,-0.3666358569307904,3.269230769230769,18652.905000000013,7-22-5-2
101,7,22,5,3,79,0.44216510133465153,-0.3789709845348669,2.590909090909091,13467.28,7-22-5-3
102,7,24,3,1,131,0.5232328225407811,-0.30438958414465983,3.8518518518518516,29508.14999999999,7-24-3-1
103,7,24,3,2,104,0.46910528917449335,-0.3594773985265107,3.0,21395.29999999998,7-24-3-2
104,7,24,3,3,57,0.38729609490855166,-0.3806049092400259,2.5625,12295.969999999996,7-24-3-3
0,7,24,4,1,125,0.5126050420168067,-0.29934954033054856,3.4642857142857144,30307.210000000006,7-24-4-1
1,7,24,4,2,108,0.4794859120118636,-0.34876759459437284,3.0,24407.32000000001,7-24-4-2
2,7,24,4,3,74,0.4080573405832921,-0.3949697598906815,3.111111111111111,13901.790000000003,7-24-4-3
3,7,24,5,1,116,0.5086505190311419,-0.3208526981118722,3.64,28092.170000000016,7-24-5-1
4,7,24,5,2,104,0.48640632723677707,-0.376910452926664,2.7142857142857144,20183.874999999978,7-24-5-2
5,7,24,5,3,73,0.41695501730103807,-0.3785982188191432,2.8421052631578947,15190.92000000001,7-24-5-3
6,8,8,3,1,0,0.0,0.0,0.0,10000.0,8-8-3-1
7,8,8,3,2,0,0.0,0.0,0.0,10000.0,8-8-3-2
8,8,8,3,3,0,0.0,0.0,0.0,10000.0,8-8-3-3
9,8,8,4,1,0,0.0,0.0,0.0,10000.0,8-8-4-1
10,8,8,4,2,0,0.0,0.0,0.0,10000.0,8-8-4-2
11,8,8,4,3,0,0.0,0.0,0.0,10000.0,8-8-4-3
12,8,8,5,1,0,0.0,0.0,0.0,10000.0,8-8-5-1
13,8,8,5,2,0,0.0,0.0,0.0,10000.0,8-8-5-2
14,8,8,5,3,0,0.0,0.0,0.0,10000.0,8-8-5-3
15,8,9,3,1,230,0.59268413247652,-0.30513684116240497,1.9113924050632911,26551.180000000037,8-9-3-1
16,8,9,3,2,139,0.5988630746416214,-0.21982495420313464,2.5641025641025643,28787.73240000001,8-9-3-2
17,8,9,3,3,48,0.4972812654473554,-0.430025110106545,2.2,11255.960000000001,8-9-3-3
18,8,9,4,1,222,0.5934256055363322,-0.2983344094018422,2.1714285714285713,25436.345000000016,8-9-4-1
19,8,9,4,2,156,0.6141868512110726,-0.37617321476248144,2.0588235294117645,21646.468600000004,8-9-4-2
20,8,9,4,3,60,0.611468116658428,-0.3648922262824206,2.0,21143.979999999985,8-9-4-3
21,8,9,5,1,201,0.5729115175481958,-0.2754451798447776,2.0454545454545454,26149.655000000028,8-9-5-1
22,8,9,5,2,156,0.5884824518042511,-0.3935055641838555,1.8363636363636364,21765.333500000015,8-9-5-2
23,8,9,5,3,63,0.6258032624814631,-0.275085286874031,2.7058823529411766,24865.540000000008,8-9-5-3
24,8,10,3,1,216,0.5793376173999011,-0.2735617407154674,2.176470588235294,31330.900000000038,8-10-3-1
25,8,10,3,2,153,0.5751359367276322,-0.4046667569183945,1.9423076923076923,22408.238700000013,8-10-3-2
26,8,10,3,3,55,0.5390509144834404,-0.31139026358350264,2.9285714285714284,21015.63999999999,8-10-3-3
27,8,10,4,1,206,0.5637666831438458,-0.2398195845580288,2.121212121212121,32175.315399999996,8-10-4-1
28,8,10,4,2,158,0.5580820563519525,-0.248608213366715,1.9811320754716981,23277.095000000016,8-10-4-2
29,8,10,4,3,63,0.6131982204646564,-0.291538983409253,2.5,21424.84,8-10-4-3
30,8,10,5,1,194,0.5652496292634701,-0.19861656530576258,2.0793650793650795,32487.345600000084,8-10-5-1
31,8,10,5,2,163,0.5380622837370242,-0.3908193234455405,2.1346153846153846,23150.735000000008,8-10-5-2
32,8,10,5,3,78,0.5790904597132971,-0.29985279997608943,2.7142857142857144,24650.25,8-10-5-3
33,8,12,3,1,188,0.5608007909045971,-0.2363617915782276,2.1864406779661016,32763.250500000024,8-12-3-1
34,8,12,3,2,152,0.5452298566485417,-0.34853389534011975,2.4545454545454546,22696.519999999986,8-12-3-2
35,8,12,3,3,64,0.4369747899159664,-0.27735034304377393,2.3684210526315788,19202.659999999993,8-12-3-3
36,8,12,4,1,187,0.5630252100840336,-0.22261729789458332,2.1166666666666667,31276.766100000044,8-12-4-1
37,8,12,4,2,163,0.5561047948591201,-0.36419193966487146,2.1346153846153846,24261.210000000017,8-12-4-2
38,8,12,4,3,83,0.46465645081562035,-0.2527830398333203,2.772727272727273,22974.68,8-12-4-3
39,8,12,5,1,175,0.5711814137419674,-0.3419267212575579,2.3653846153846154,25238.26500000001,8-12-5-1
40,8,12,5,2,159,0.5563519525457242,-0.44388492284016556,2.1176470588235294,20289.109999999982,8-12-5-2
41,8,12,5,3,85,0.45353435491843797,-0.3254657662290863,2.6956521739130435,19621.38,8-12-5-3
42,8,14,3,1,169,0.5679683638161147,-0.2786626236696958,2.5208333333333335,27587.75000000003,8-14-3-1
43,8,14,3,2,132,0.5279288185862581,-0.3677979377184071,2.5675675675675675,23413.62999999999,8-14-3-2
44,8,14,3,3,59,0.4189322787938705,-0.30235003363321805,2.1052631578947367,17471.250000000004,8-14-3-3
45,8,14,4,1,168,0.5669797330696985,-0.3277119092125604,2.574468085106383,26875.26999999999,8-14-4-1
46,8,14,4,2,143,0.550914483440435,-0.3438560493117126,2.3255813953488373,23394.51999999999,8-14-4-2
47,8,14,4,3,88,0.4826989619377163,-0.30644087738782344,2.259259259259259,15473.369999999986,8-14-4-3
48,8,14,5,1,157,0.5578348986653485,-0.34882859394144344,2.738095238095238,27108.740000000013,8-14-5-1
49,8,14,5,2,139,0.5442412259021255,-0.349800430336015,2.475,23601.220000000005,8-14-5-2
50,8,14,5,3,95,0.46836381611468114,-0.31302382033822296,2.5185185185185186,15809.23000000001,8-14-5-3
51,8,16,3,1,154,0.5598121601581809,-0.23921810557559214,2.85,31213.210000000006,8-16-3-1
52,8,16,3,2,117,0.5165595650024716,-0.40157283451144354,2.4411764705882355,17824.30999999999,8-16-3-2
53,8,16,3,3,66,0.4555116164112704,-0.2902365991634265,2.473684210526316,16033.350000000008,8-16-3-3
54,8,16,4,1,147,0.5541275333662877,-0.2770016363310703,2.4186046511627906,26841.645000000004,8-16-4-1
55,8,16,4,2,128,0.5499258526940188,-0.33906636673339235,2.657142857142857,24254.239999999983,8-16-4-2
56,8,16,4,3,79,0.4607019278299555,-0.3509011926158237,2.761904761904762,16195.209999999994,8-16-4-3
57,8,16,5,1,143,0.5459713297083539,-0.2786857091047309,2.763157894736842,31236.59999999999,8-16-5-1
58,8,16,5,2,130,0.5358378645575878,-0.3196905927341557,2.5135135135135136,25561.274999999994,8-16-5-2
59,8,16,5,3,94,0.5007414730598122,-0.3417096550931833,2.76,16388.37999999999,8-16-5-3
60,8,18,3,1,140,0.555610479485912,-0.2807763764726453,3.1176470588235294,28776.620000000017,8-18-3-1
61,8,18,3,2,114,0.5212555610479486,-0.3995646824513952,2.8,18786.930000000008,8-18-3-2
62,8,18,3,3,62,0.4565002471576866,-0.3804482790820661,3.1333333333333333,17373.770000000004,8-18-3-3
63,8,18,4,1,137,0.5457241720217498,-0.2818913345567009,2.914285714285714,28854.08999999999,8-18-4-1
64,8,18,4,2,120,0.5395452298566485,-0.3229098962259084,3.0,23268.984999999993,8-18-4-2
65,8,18,4,3,79,0.4794859120118636,-0.36844085283793154,3.1578947368421053,19202.629999999994,8-18-4-3
66,8,18,5,1,135,0.5390509144834404,-0.2980610137611701,2.9705882352941178,27744.269999999997,8-18-5-1
67,8,18,5,2,123,0.5355907068709836,-0.3735326713037894,2.727272727272727,25185.545,8-18-5-2
68,8,18,5,3,93,0.5029658922392486,-0.45542810148718427,2.72,16472.589999999993,8-18-5-3
69,8,20,3,1,134,0.5407810182896688,-0.29175155790050483,3.7857142857142856,31415.44000000001,8-20-3-1
70,8,20,3,2,109,0.5118635689569946,-0.3853717794899092,2.892857142857143,20072.684999999994,8-20-3-2
71,8,20,3,3,58,0.4117647058823529,-0.38909733516026196,3.4615384615384617,17621.16,8-20-3-3
72,8,20,4,1,134,0.537073652990608,-0.29035358465015243,3.466666666666667,30303.695,8-20-4-1
73,8,20,4,2,117,0.5348492338111716,-0.3671556973548153,3.875,27721.594999999976,8-20-4-2
74,8,20,4,3,78,0.45130993573900147,-0.3190786804691381,2.9,18280.399999999998,8-20-4-3
75,8,20,5,1,128,0.5299060800790905,-0.3175101470773051,3.413793103448276,26039.945000000025,8-20-5-1
76,8,20,5,2,118,0.522985664854177,-0.3326573380537185,3.3703703703703702,25133.02999999998,8-20-5-2
77,8,20,5,3,88,0.4579831932773109,-0.3847273572012678,3.0,15073.64000000001,8-20-5-3
78,8,22,3,1,131,0.5380622837370242,-0.28451838424323,3.8518518518518516,33789.219999999965,8-22-3-1
79,8,22,3,2,109,0.49060800790904596,-0.33490287785864087,3.5416666666666665,20767.81000000001,8-22-3-2
80,8,22,3,3,56,0.3801285219970341,-0.4090448637442879,2.5,13512.109999999999,8-22-3-3
81,8,22,4,1,126,0.5294117647058824,-0.3097486555924421,3.064516129032258,27904.090000000004,8-22-4-1
82,8,22,4,2,112,0.5187839841819081,-0.3208042114775672,3.6666666666666665,27712.484999999982,8-22-4-2
83,8,22,4,3,73,0.44537815126050423,-0.31598306253661523,2.8421052631578947,16460.799999999985,8-22-4-3
84,8,22,5,1,121,0.5269401878398419,-0.3439209165806793,3.1724137931034484,25964.46,8-22-5-1
85,8,22,5,2,113,0.5177953534354919,-0.30774482974207673,3.3461538461538463,23812.484999999997,8-22-5-2
86,8,22,5,3,80,0.46218487394957986,-0.3372449375617813,2.8095238095238093,15567.759999999997,8-22-5-3
87,8,24,3,1,125,0.5259515570934256,-0.28361885198075465,3.4642857142857144,36350.29999999999,8-24-3-1
88,8,24,3,2,104,0.49060800790904596,-0.32997374273212515,3.5217391304347827,26364.724999999984,8-24-3-2
89,8,24,3,3,57,0.46144340088976765,-0.39497259093785525,3.0714285714285716,15070.590000000015,8-24-3-3
90,8,24,4,1,116,0.5222441917943648,-0.2978514848388729,3.2962962962962963,29862.779999999988,8-24-4-1
91,8,24,4,2,104,0.5098863074641621,-0.3118680053096338,3.727272727272727,28431.47499999998,8-24-4-2
92,8,24,4,3,71,0.4500741473059812,-0.3502443721674417,3.7333333333333334,17865.229999999996,8-24-4-3
93,8,24,5,1,112,0.5160652496292635,-0.3534260204844466,3.3076923076923075,23492.510000000017,8-24-5-1
94,8,24,5,2,106,0.5101334651507662,-0.2950742002172535,3.24,25153.754999999994,8-24-5-2
95,8,24,5,3,79,0.4476025704399407,-0.24889150837318802,2.95,21707.52,8-24-5-3
96,9,9,3,1,0,0.0,0.0,0.0,10000.0,9-9-3-1
97,9,9,3,2,0,0.0,0.0,0.0,10000.0,9-9-3-2
98,9,9,3,3,0,0.0,0.0,0.0,10000.0,9-9-3-3
99,9,9,4,1,0,0.0,0.0,0.0,10000.0,9-9-4-1
100,9,9,4,2,0,0.0,0.0,0.0,10000.0,9-9-4-2
101,9,9,4,3,0,0.0,0.0,0.0,10000.0,9-9-4-3
102,9,9,5,1,0,0.0,0.0,0.0,10000.0,9-9-5-1
103,9,9,5,2,0,0.0,0.0,0.0,10000.0,9-9-5-2
104,9,9,5,3,0,0.0,0.0,0.0,10000.0,9-9-5-3
0,9,10,3,1,202,0.5662382600098863,-0.2591809405271202,2.3114754098360657,34235.04050000005,9-10-3-1
1,9,10,3,2,117,0.541275333662877,-0.3565808108304459,2.0789473684210527,23177.170000000035,9-10-3-2
2,9,10,3,3,44,0.532377656945131,-0.21811404247994529,1.9333333333333333,22065.34,9-10-3-3
3,9,10,4,1,197,0.5654967869500741,-0.24311426007838124,2.283333333333333,30428.75150000003,9-10-4-1
4,9,10,4,2,150,0.573900148294612,-0.33972919206827973,2.658536585365854,25717.510000000006,9-10-4-2
5,9,10,4,3,54,0.5944142362827484,-0.33548654091983426,2.375,15580.429999999998,9-10-4-3
6,9,10,5,1,189,0.5620365793376174,-0.2335217526799714,2.098360655737705,31040.481100000023,9-10-5-1
7,9,10,5,2,151,0.5756302521008403,-0.32479527588860985,2.282608695652174,27033.20499999998,9-10-5-2
8,9,10,5,3,72,0.583044982698962,-0.32832044781940395,2.4285714285714284,20964.30999999999,9-10-5-3
9,9,12,3,1,191,0.5640138408304498,-0.20447908739479237,2.0317460317460316,33000.69000000002,9-12-3-1
10,9,12,3,2,147,0.5528917449332674,-0.3751485856770939,2.769230769230769,22220.165,9-12-3-2
11,9,12,3,3,67,0.532377656945131,-0.23088099943468804,2.526315789473684,23426.10999999998,9-12-3-3
12,9,12,4,1,185,0.5674740484429066,-0.24945235726760798,2.3035714285714284,34264.635000000024,9-12-4-1
13,9,12,4,2,153,0.5541275333662877,-0.3155939989248889,2.3260869565217392,22056.190000000002,9-12-4-2
14,9,12,4,3,76,0.5148294611962432,-0.3977363403092447,2.04,15385.840000000006,9-12-4-3
15,9,12,5,1,174,0.5679683638161147,-0.27757803622834465,2.3461538461538463,34029.55499999999,9-12-5-1
16,9,12,5,2,150,0.5617894216510133,-0.30683504563661784,1.8846153846153846,22018.660000000014,9-12-5-2
17,9,12,5,3,90,0.5467128027681661,-0.34263996400760366,2.0,15705.410000000003,9-12-5-3
18,9,14,3,1,167,0.5692041522491349,-0.2886283326564431,2.630434782608696,33549.77000000004,9-14-3-1
19,9,14,3,2,130,0.5402867029164607,-0.38612793700458753,2.1707317073170733,17742.615000000005,9-14-3-2
20,9,14,3,3,77,0.45501730103806226,-0.3151634646073773,2.347826086956522,16488.950000000004,9-14-3-3
21,9,14,4,1,162,0.5605536332179931,-0.39367145689222366,2.306122448979592,24359.91,9-14-4-1
22,9,14,4,2,147,0.5390509144834404,-0.3454745392110554,2.1956521739130435,24583.609999999986,9-14-4-2
23,9,14,4,3,81,0.45724172021749876,-0.3289749449262835,2.6818181818181817,16480.86,9-14-4-3
24,9,14,5,1,155,0.5605536332179931,-0.3904356020424039,2.7804878048780486,25967.74499999998,9-14-5-1
25,9,14,5,2,139,0.5605536332179931,-0.38549180831052643,2.3902439024390243,19429.105000000007,9-14-5-2
26,9,14,5,3,97,0.5126050420168067,-0.33800468628933644,2.4642857142857144,18498.14000000002,9-14-5-3
27,9,16,3,1,147,0.5590706870983687,-0.3706199997698754,2.5853658536585367,26640.449999999957,9-16-3-1
28,9,16,3,2,117,0.5444883835887296,-0.38290699506307874,2.65625,22223.770000000004,9-16-3-2
29,9,16,3,3,75,0.46465645081562035,-0.38304215133124475,2.409090909090909,17078.140000000007,9-16-3-3
30,9,16,4,1,143,0.5659911023232822,-0.35219377714587924,3.085714285714286,28137.84999999999,9-16-4-1
31,9,16,4,2,128,0.5561047948591201,-0.32717380381066885,2.878787878787879,25686.405000000017,9-16-4-2
32,9,16,4,3,82,0.4750370736529906,-0.2568750063775572,2.9047619047619047,18867.560000000012,9-16-4-3
33,9,16,5,1,139,0.5573405832921404,-0.3565991643582149,2.861111111111111,23115.715,9-16-5-1
34,9,16,5,2,128,0.5499258526940188,-0.33163655460249314,2.5555555555555554,23775.249999999993,9-16-5-2
35,9,16,5,3,92,0.5160652496292635,-0.22799784540034027,2.5384615384615383,22248.48000000004,9-16-5-3
36,9,18,3,1,139,0.546465645081562,-0.29481046863640376,3.212121212121212,30066.089999999993,9-18-3-1
37,9,18,3,2,115,0.5313890261987148,-0.32030113461762727,2.7096774193548385,24831.120000000028,9-18-3-2
38,9,18,3,3,65,0.44216510133465153,-0.38443858641842554,3.0625,18869.09000000001,9-18-3-3
39,9,18,4,1,135,0.5506673257538309,-0.2941778296150194,3.090909090909091,27831.120000000006,9-18-4-1
40,9,18,4,2,119,0.5355907068709836,-0.3413432638085908,2.71875,25055.35,9-18-4-2
41,9,18,4,3,85,0.4782501235788433,-0.32329645830808273,3.0476190476190474,26858.08000000001,9-18-4-3
42,9,18,5,1,133,0.555857637172516,-0.34627891303294456,3.15625,25659.039999999994,9-18-5-1
43,9,18,5,2,123,0.5472071181413742,-0.33708580965008034,3.1,27171.715000000007,9-18-5-2
44,9,18,5,3,89,0.49085516559565,-0.3487777805537019,2.423076923076923,21847.85000000001,9-18-5-3
45,9,20,3,1,137,0.5457241720217498,-0.31996268156544394,3.1515151515151514,25592.930000000033,9-20-3-1
46,9,20,3,2,108,0.509391992090954,-0.300838908646618,3.0,23187.88999999999,9-20-3-2
47,9,20,3,3,69,0.4132476520019773,-0.3528823312161737,3.0588235294117645,18430.990000000016,9-20-3-3
48,9,20,4,1,125,0.5365793376174,-0.32987919363276874,3.032258064516129,22388.61000000002,9-20-4-1
49,9,20,4,2,111,0.5215027187345527,-0.3273221698731124,3.44,23923.614999999976,9-20-4-2
50,9,20,4,3,74,0.4555116164112704,-0.3305829448782722,3.111111111111111,19237.370000000003,9-20-4-3
51,9,20,5,1,121,0.5291646070192783,-0.32855328747966167,3.4814814814814814,22266.750000000022,9-20-5-1
52,9,20,5,2,113,0.5182896688087,-0.31223655539172174,3.9130434782608696,24518.784999999993,9-20-5-2
53,9,20,5,3,79,0.4671280276816609,-0.38899595828331673,2.761904761904762,19225.88,9-20-5-3
54,9,22,3,1,125,0.5405338606030647,-0.3096919849295477,2.90625,26292.73999999998,9-22-3-1
55,9,22,3,2,104,0.5155709342560554,-0.2906298663525704,2.8518518518518516,23980.309999999983,9-22-3-2
56,9,22,3,3,61,0.4199209095402867,-0.3495221609145661,2.588235294117647,14635.76999999999,9-22-3-3
57,9,22,4,1,118,0.5291646070192783,-0.29909204843610504,2.6875,26444.440000000035,9-22-4-1
58,9,22,4,2,104,0.5170538803756797,-0.2719849614688052,3.3333333333333335,28107.504999999976,9-22-4-2
59,9,22,4,3,73,0.47009391992090954,-0.298336865145967,2.4761904761904763,17229.08999999999,9-22-4-3
60,9,22,5,1,113,0.5237271379139892,-0.33900900770433884,3.185185185185185,21948.030000000002,9-22-5-1
61,9,22,5,2,106,0.5217498764211567,-0.33233416304082325,3.24,21244.734999999953,9-22-5-2
62,9,22,5,3,81,0.4844290657439446,-0.30140303123685763,2.857142857142857,19120.569999999992,9-22-5-3
63,9,24,3,1,118,0.5261987147800297,-0.32982021417606944,2.806451612903226,27527.97000000001,9-24-3-1
64,9,24,3,2,96,0.5037073652990608,-0.29226533175544706,3.3636363636363638,25983.625000000015,9-24-3-2
65,9,24,3,3,57,0.4322787938704894,-0.314316204546401,2.8,15102.869999999995,9-24-3-3
66,9,24,4,1,110,0.5200197726149284,-0.30713624314608357,3.4,27314.26000000002,9-24-4-1
67,9,24,4,2,99,0.5232328225407811,-0.31205205320350937,3.3043478260869565,27338.48499999998,9-24-4-2
68,9,24,4,3,72,0.45946613939693526,-0.2659500368671716,3.5,21738.35000000001,9-24-4-3
69,9,24,5,1,106,0.5098863074641621,-0.3200434420419584,3.24,26926.48000000001,9-24-5-1
70,9,24,5,2,98,0.5034602076124568,-0.29255550634864924,3.0833333333333335,23775.405000000006,9-24-5-2
71,9,24,5,3,81,0.46589223924864065,-0.24813026665347201,2.857142857142857,20783.640000000003,9-24-5-3
72,10,10,3,1,0,0.0,0.0,0.0,10000.0,10-10-3-1
73,10,10,3,2,0,0.0,0.0,0.0,10000.0,10-10-3-2
74,10,10,3,3,0,0.0,0.0,0.0,10000.0,10-10-3-3
75,10,10,4,1,0,0.0,0.0,0.0,10000.0,10-10-4-1
76,10,10,4,2,0,0.0,0.0,0.0,10000.0,10-10-4-2
77,10,10,4,3,0,0.0,0.0,0.0,10000.0,10-10-4-3
78,10,10,5,1,0,0.0,0.0,0.0,10000.0,10-10-5-1
79,10,10,5,2,0,0.0,0.0,0.0,10000.0,10-10-5-2
80,10,10,5,3,0,0.0,0.0,0.0,10000.0,10-10-5-3
81,10,12,3,1,186,0.5677212061295106,-0.32885740530220015,2.206896551724138,28874.58500000001,10-12-3-1
82,10,12,3,2,141,0.565002471576866,-0.40905081725539627,2.0652173913043477,20407.48000000002,10-12-3-2
83,10,12,3,3,55,0.5652496292634701,-0.31497878396246864,2.4375,17095.51000000001,10-12-3-3
84,10,12,4,1,177,0.5684626791893228,-0.24390120694943052,2.4038461538461537,33679.56000000003,10-12-4-1
85,10,12,4,2,140,0.5751359367276322,-0.34507587151674174,2.255813953488372,21296.78999999999,10-12-4-2
86,10,12,4,3,76,0.5355907068709836,-0.2507839969590427,1.7142857142857142,13750.969999999998,10-12-4-3
87,10,12,5,1,168,0.560306475531389,-0.3619821018996602,2.169811320754717,31823.160000000014,10-12-5-1
88,10,12,5,2,143,0.5585763717251606,-0.40107139760394217,2.1777777777777776,19441.900000000027,10-12-5-2
89,10,12,5,3,85,0.5259515570934256,-0.319791904766259,2.5416666666666665,16916.930000000004,10-12-5-3
90,10,14,3,1,161,0.5598121601581809,-0.37217573631714007,2.5,28984.339999999986,10-14-3-1
91,10,14,3,2,131,0.5397923875432526,-0.32960175291841387,2.275,25986.660000000014,10-14-3-2
92,10,14,3,3,70,0.49505684626791896,-0.2883927289787031,2.888888888888889,23616.59999999998,10-14-3-3
93,10,14,4,1,159,0.5608007909045971,-0.36774474947039953,2.533333333333333,28904.575,10-14-4-1
94,10,14,4,2,138,0.5551161641127039,-0.31425097676883834,2.72972972972973,29913.899999999998,10-14-4-2
95,10,14,4,3,96,0.564755313890262,-0.29439691082928904,2.6923076923076925,37003.64000000001,10-14-4-3
96,10,14,5,1,147,0.5595650024715768,-0.35435996533056724,2.675,27163.99000000002,10-14-5-1
97,10,14,5,2,136,0.5528917449332674,-0.27088643494298464,2.317073170731707,27290.410000000025,10-14-5-2
98,10,14,5,3,96,0.5605536332179931,-0.3276259656933951,2.5555555555555554,26994.080000000024,10-14-5-3
99,10,16,3,1,146,0.5583292140385566,-0.33445541552759633,2.7435897435897436,32798.660000000025,10-16-3-1
100,10,16,3,2,122,0.5528917449332674,-0.27760322730719944,2.388888888888889,22581.320000000003,10-16-3-2
101,10,16,3,3,83,0.4967869500741473,-0.2669587717522786,2.772727272727273,24154.48000000001,10-16-3-3
102,10,16,4,1,143,0.5608007909045971,-0.34141562685548144,2.4878048780487805,26223.800000000025,10-16-4-1
103,10,16,4,2,127,0.5459713297083539,-0.2784879890197437,2.5277777777777777,26668.50499999998,10-16-4-2
104,10,16,4,3,90,0.4834404349975284,-0.26151372677205137,3.090909090909091,28409.910000000033,10-16-4-3
0,10,16,5,1,132,0.5615422639644093,-0.34406733674979373,2.6666666666666665,20813.284999999993,10-16-5-1
1,10,16,5,2,123,0.546465645081562,-0.2838872767113891,2.324324324324324,24717.749999999996,10-16-5-2
2,10,16,5,3,95,0.5066732575383095,-0.22457430340557252,3.3181818181818183,31202.65,10-16-5-3
3,10,18,3,1,135,0.5504201680672269,-0.3217895877659927,3.21875,28409.030000000024,10-18-3-1
4,10,18,3,2,109,0.5454770143351458,-0.2892711085375123,2.892857142857143,26745.14,10-18-3-2
5,10,18,3,3,75,0.4740484429065744,-0.3405171770583986,2.75,22181.579999999998,10-18-3-3
6,10,18,4,1,130,0.5632723677706377,-0.31931263483265687,3.193548387096774,28306.240000000005,10-18-4-1
7,10,18,4,2,118,0.5605536332179931,-0.2288090992011355,3.5384615384615383,31293.719999999987,10-18-4-2
8,10,18,4,3,85,0.5002471576866041,-0.35364040447400047,3.0476190476190474,25999.150000000023,10-18-4-3
9,10,18,5,1,123,0.5561047948591201,-0.3172030410527926,3.2413793103448274,24716.310000000005,10-18-5-1
10,10,18,5,2,112,0.5392980721700444,-0.253374113371669,3.3076923076923075,26360.82000000001,10-18-5-2
11,10,18,5,3,89,0.49431537320810676,-0.4129884593431989,3.45,21065.420000000013,10-18-5-3
12,10,20,3,1,126,0.5402867029164607,-0.30403956281102906,3.064516129032258,27321.869999999995,10-20-3-1
13,10,20,3,2,104,0.5173010380622838,-0.2790447267715498,3.3333333333333335,23930.349999999988,10-20-3-2
14,10,20,3,3,64,0.48418190805734057,-0.380323920619378,3.0,22343.30000000001,10-20-3-3
15,10,20,4,1,118,0.5422639644092931,-0.3080208874302431,3.2142857142857144,24116.825000000026,10-20-4-1
16,10,20,4,2,111,0.5306475531389027,-0.2806078296070996,3.625,21838.76499999999,10-20-4-2
17,10,20,4,3,74,0.49703410776075135,-0.3623919352887628,3.933333333333333,22694.429999999993,10-20-4-3
18,10,20,5,1,117,0.5457241720217498,-0.34297428245288164,3.68,22819.909999999996,10-20-5-1
19,10,20,5,2,111,0.532130499258527,-0.2684573499366744,3.625,26461.749999999985,10-20-5-2
20,10,20,5,3,88,0.4935739001482946,-0.35974091478196535,4.176470588235294,25584.88999999999,10-20-5-3
21,10,22,3,1,114,0.5425111220958971,-0.3136914667979355,2.9310344827586206,23433.090000000022,10-22-3-1
22,10,22,3,2,96,0.5190311418685121,-0.2805810454776805,4.647058823529412,27302.97000000001,10-22-3-2
23,10,22,3,3,63,0.5002471576866041,-0.36512998141507674,2.7058823529411766,19885.129999999997,10-22-3-3
24,10,22,4,1,112,0.5385565991102323,-0.3163476693012921,2.7333333333333334,24169.58999999997,10-22-4-1
25,10,22,4,2,103,0.5252100840336135,-0.2857711701069111,3.4782608695652173,22543.770000000022,10-22-4-2
26,10,22,4,3,77,0.4930795847750865,-0.34818984734332253,3.8125,23554.190000000002,10-22-4-3
27,10,22,5,1,110,0.5350963914977755,-0.31414253547207,2.793103448275862,24228.429999999986,10-22-5-1
28,10,22,5,2,100,0.5308947108255067,-0.26784183962746444,3.5454545454545454,20625.48,10-22-5-2
29,10,22,5,3,88,0.49505684626791896,-0.2948996492826669,3.4,24608.909999999985,10-22-5-3
30,10,24,3,1,109,0.5227385071675729,-0.2989389270046309,3.1923076923076925,26020.655000000013,10-24-3-1
31,10,24,3,2,92,0.49505684626791896,-0.28021963909619946,5.133333333333334,28893.020000000004,10-24-3-2
32,10,24,3,3,59,0.4587246663371231,-0.36289078948213327,2.933333333333333,17972.97999999999,10-24-3-3
33,10,24,4,1,104,0.5177953534354919,-0.3122256234806878,3.9523809523809526,31021.83500000001,10-24-4-1
34,10,24,4,2,97,0.4995056846267919,-0.2655201929810908,4.105263157894737,28569.35,10-24-4-2
35,10,24,4,3,77,0.5022244191794365,-0.3093414080797593,4.133333333333334,26656.890000000003,10-24-4-3
36,10,24,5,1,100,0.5219970341077608,-0.3132468268631733,3.5454545454545454,26567.500000000004,10-24-5-1
37,10,24,5,2,94,0.5153237765694513,-0.2755784866399587,4.222222222222222,28617.37999999997,10-24-5-2
38,10,24,5,3,79,0.5086505190311419,-0.2611635992768069,3.9375,27480.000000000004,10-24-5-3
39,11,12,3,1,179,0.5635195254572417,-0.2826514490616272,2.2545454545454544,31404.305000000008,11-12-3-1
40,11,12,3,2,106,0.5662382600098863,-0.4094321071860041,2.0285714285714285,19099.47000000001,11-12-3-2
41,11,12,3,3,38,0.5958971824023727,-0.4175662307501161,1.5333333333333334,13135.109999999997,11-12-3-3
42,11,12,4,1,168,0.5642609985170539,-0.2944431125635612,2.0545454545454547,38521.36000000001,11-12-4-1
43,11,12,4,2,126,0.5716757291151755,-0.36289579120329346,2.15,21794.119999999988,11-12-4-2
44,11,12,4,3,58,0.587988136431043,-0.30837605424177267,2.0526315789473686,17528.730000000007,11-12-4-3
45,11,12,5,1,160,0.5620365793376174,-0.2839095976071454,2.1372549019607843,30248.440000000002,11-12-5-1
46,11,12,5,2,139,0.5711814137419674,-0.29455817608863183,1.9574468085106382,22448.050000000007,11-12-5-2
47,11,12,5,3,62,0.6188828472565496,-0.2746933265012061,2.263157894736842,14727.490000000009,11-12-5-3
48,11,14,3,1,161,0.5630252100840336,-0.2843795877041232,2.425531914893617,32174.579999999976,11-14-3-1
49,11,14,3,2,121,0.5531389026198715,-0.27062157158919237,2.78125,22302.905000000002,11-14-3-2
50,11,14,3,3,62,0.5444883835887296,-0.2982272394066177,3.1333333333333333,19087.65999999999,11-14-3-3
51,11,14,4,1,153,0.565002471576866,-0.37402407214123196,2.477272727272727,29530.050000000003,11-14-4-1
52,11,14,4,2,136,0.5548690064260998,-0.24559965902425862,2.8857142857142857,33399.955000000016,11-14-4-2
53,11,14,4,3,72,0.4972812654473554,-0.22792935762032276,2.130434782608696,21400.14000000002,11-14-4-3
54,11,14,5,1,147,0.5615422639644093,-0.3613059524039337,2.2666666666666666,24903.330000000016,11-14-5-1
55,11,14,5,2,138,0.5543746910528917,-0.248224889564777,2.6315789473684212,34770.74500000001,11-14-5-2
56,11,14,5,3,90,0.5331191300049432,-0.21638496994308046,2.9130434782608696,28523.200000000008,11-14-5-3
57,11,16,3,1,138,0.5630252100840336,-0.3088738909423681,2.45,32448.31000000001,11-16-3-1
58,11,16,3,2,112,0.5637666831438458,-0.33508356172091813,2.6129032258064515,24831.874999999985,11-16-3-2
59,11,16,3,3,73,0.532871972318339,-0.4064302047307961,2.8421052631578947,22619.93000000002,11-16-3-3
60,11,16,4,1,132,0.5561047948591201,-0.30358675055906803,2.5675675675675675,30328.26,11-16-4-1
61,11,16,4,2,120,0.5474542758279782,-0.27446398180830345,3.0,33104.409999999974,11-16-4-2
62,11,16,4,3,88,0.5108749382105784,-0.33719796636016125,3.6315789473684212,27755.779999999995,11-16-4-3
63,11,16,5,1,127,0.5620365793376174,-0.2710650948784954,2.8484848484848486,26046.44999999999,11-16-5-1
64,11,16,5,2,118,0.5563519525457242,-0.27799472583928836,2.933333333333333,29971.334999999966,11-16-5-2
65,11,16,5,3,101,0.5247157686604054,-0.28240930919701307,3.391304347826087,26470.450000000008,11-16-5-3
66,11,18,3,1,128,0.5561047948591201,-0.31053167889100014,3.0,27789.979999999992,11-18-3-1
67,11,18,3,2,113,0.5563519525457242,-0.3534099943942291,3.0357142857142856,23197.919999999987,11-18-3-2
68,11,18,3,3,77,0.5076618882847257,-0.45894258287508605,2.85,24102.28,11-18-3-3
69,11,18,4,1,124,0.5536332179930796,-0.32681501619722675,2.875,23123.559999999994,11-18-4-1
70,11,18,4,2,115,0.5410281759762728,-0.2426833989406355,3.259259259259259,30325.834999999963,11-18-4-2
71,11,18,4,3,85,0.48912506178942167,-0.3861392058007245,4.3125,23075.37,11-18-4-3
72,11,18,5,1,121,0.5526445872466633,-0.32119613967607,3.3214285714285716,24278.335000000014,11-18-5-1
73,11,18,5,2,114,0.537320810677212,-0.2758222383232739,3.56,29242.185000000023,11-18-5-2
74,11,18,5,3,95,0.5074147305981216,-0.29766397266404193,3.5238095238095237,25176.170000000016,11-18-5-3
75,11,20,3,1,120,0.5430054374691052,-0.3083371846632777,3.0,27258.900000000016,11-20-3-1
76,11,20,3,2,105,0.5346020761245674,-0.2747037654937333,4.0,25690.67999999999,11-20-3-2
77,11,20,3,3,66,0.4236282748393475,-0.4594307130798111,2.6666666666666665,14650.010000000011,11-20-3-3
78,11,20,4,1,117,0.5469599604547701,-0.3388026385488506,3.875,24723.71000000001,11-20-4-1
79,11,20,4,2,107,0.5348492338111716,-0.2824983206295866,3.28,27615.61999999999,11-20-4-2
80,11,20,4,3,82,0.47231833910034604,-0.3788593353734784,4.466666666666667,23379.84999999999,11-20-4-3
81,11,20,5,1,114,0.5348492338111716,-0.2895901761486782,3.3846153846153846,26315.524999999983,11-20-5-1
82,11,20,5,2,107,0.527681660899654,-0.2595911945340301,3.4583333333333335,31387.909999999996,11-20-5-2
83,11,20,5,3,92,0.5096391497775581,-0.39499119209819017,3.1818181818181817,19870.049999999996,11-20-5-3
84,11,22,3,1,111,0.5410281759762728,-0.29007580110810766,3.269230769230769,23842.180000000026,11-22-3-1
85,11,22,3,2,95,0.537320810677212,-0.2796977314368968,3.5238095238095237,21543.869999999984,11-22-3-2
86,11,22,3,3,62,0.4542758279782501,-0.40910741616220564,2.4444444444444446,13814.390000000005,11-22-3-3
87,11,22,4,1,109,0.5336134453781513,-0.3069371061203563,3.037037037037037,23361.32000000001,11-22-4-1
88,11,22,4,2,98,0.5281759762728621,-0.27036438092966214,2.769230769230769,21649.59999999999,11-22-4-2
89,11,22,4,3,80,0.4718240237271379,-0.3672377594206607,4.0,22181.280000000006,11-22-4-3
90,11,22,5,1,106,0.527681660899654,-0.27369376781413046,3.076923076923077,25037.070000000003,11-22-5-1
91,11,22,5,2,99,0.5165595650024716,-0.26444662006451874,3.95,28468.34999999996,11-22-5-2
92,11,22,5,3,89,0.504695996045477,-0.2779533198909941,4.235294117647059,27613.23000000001,11-22-5-3
93,11,24,3,1,104,0.5318833415719229,-0.28827750127331037,3.727272727272727,26880.550000000014,11-24-3-1
94,11,24,3,2,89,0.5148294611962432,-0.2649383342170177,4.5625,25913.999999999985,11-24-3-2
95,11,24,3,3,61,0.4552644587246663,-0.40022367980785495,3.066666666666667,14742.920000000007,11-24-3-3
96,11,24,4,1,101,0.5284231339594662,-0.3011433216220405,3.8095238095238093,25536.44000000003,11-24-4-1
97,11,24,4,2,91,0.5163124073158675,-0.26445563497549596,4.055555555555555,27393.489999999998,11-24-4-2
98,11,24,4,3,77,0.4772614928324271,-0.2747670074890619,3.8125,26326.639999999992,11-24-4-3
99,11,24,5,1,98,0.5195254572417202,-0.2785711015025541,3.260869565217391,24146.679999999993,11-24-5-1
100,11,24,5,2,92,0.5160652496292635,-0.23363899237914568,3.8421052631578947,31646.709999999955,11-24-5-2
101,11,24,5,3,82,0.4881364310430054,-0.2526375581599326,4.857142857142857,29399.450000000004,11-24-5-3
